SWC1_LE,SWC1_LE_R,SWC1_LE_SSD,SWC1_LE_TSD,SWC1_LE_SM,SWC1_LE_TM,SWC1_LE_pval,SWC1_H,SWC1_H_R,SWC1_H_SSD,SWC1_H_TSD,SWC1_H_SM,SWC1_H_TM,SWC1_H_pval,SWC1_EF,SWC1_EF_R,SWC1_EF_SSD,SWC1_EF_TSD,SWC1_EF_SM,SWC1_EF_TM,SWC1_EF_pval,SWC1_NETRAD,SWC1_NETRAD_R,SWC1_NETRAD_SSD,SWC1_NETRAD_TSD,SWC1_NETRAD_SM,SWC1_NETRAD_TM,SWC1_NETRAD_pval,LE_QA,LE_QA_R,LE_QA_SSD,LE_QA_TSD,LE_QA_SM,LE_QA_TM,LE_QA_pval,EF_QA,EF_QA_R,EF_QA_SSD,EF_QA_TSD,EF_QA_SM,EF_QA_TM,EF_QA_pval,H_TA,H_TA_R,H_TA_SSD,H_TA_TSD,H_TA_SM,H_TA_TM,H_TA_pval,SWC1_LCL,SWC1_LCL_R,SWC1_LCL_SSD,SWC1_LCL_TSD,SWC1_LCL_SM,SWC1_LCL_TM,SWC1_LCL_pval,LE_PBLH,LE_PBLH_R,LE_PBLH_SSD,LE_PBLH_TSD,LE_PBLH_SM,LE_PBLH_TM,LE_PBLH_pval,H_PBLH,H_PBLH_R,H_PBLH_SSD,H_PBLH_TSD,H_PBLH_SM,H_PBLH_TM,H_PBLH_pval,LE_LCL,LE_LCL_R,LE_LCL_SSD,LE_LCL_TSD,LE_LCL_SM,LE_LCL_TM,LE_LCL_pval,H_LCL,H_LCL_R,H_LCL_SSD,H_LCL_TSD,H_LCL_SM,H_LCL_TM,H_LCL_pval,EF_LCL,EF_LCL_R,EF_LCL_SSD,EF_LCL_TSD,EF_LCL_SM,EF_LCL_TM,EF_LCL_pval,NETRAD_LCL,NETRAD_LCL_R,NETRAD_LCL_SSD,NETRAD_LCL_TSD,NETRAD_LCL_SM,NETRAD_LCL_TM,NETRAD_LCL_pval,QA_LCL,QA_LCL_R,QA_LCL_SSD,QA_LCL_TSD,QA_LCL_SM,QA_LCL_TM,QA_LCL_pval,TA_LCL,TA_LCL_R,TA_LCL_SSD,TA_LCL_TSD,TA_LCL_SM,TA_LCL_TM,TA_LCL_pval,ME_MEAN,TE_MEAN,DEN_MEAN,PBLH_MEAN,month,sub-daily
8.1935909,0.44143791,1.9245555,18.56114,12.295543,27.019806,0.0010532444,-1.1542985,-0.080839128,1.8838677,14.278958,12.226034,11.706636,0.55366904,0.043379215,0.26696585,1.9245555,0.16248975,12.295543,0.33680983,0.055722009,-2.3050797,-0.11450669,1.8838677,20.130523,12.226034,37.326407,0.40072225,-0.00066986149,-0.4116008,18.56114,0.0016274543,27.019806,0.0057796206,0.0024329378,0.00074091783,0.45526184,0.16248975,0.0016274543,0.33680983,0.0057796206,0.00069599571,-0.46807246,-0.18410339,14.278958,2.5424434,11.706636,12.487942,0.17437709,-155.2477,-0.18031391,1.8838677,860.98572,12.226034,1161.8489,0.18357035,54.307395,0.36831466,18.56114,147.44837,27.019806,252.7932,0.0072193571,-65.132801,-0.44992718,14.278958,144.76298,11.706636,249.08066,0.00050316702,364.28751,0.44451785,18.56114,819.51154,27.019806,1071.6733,0.00096181801,-339.64709,-0.39448632,14.278958,860.98572,11.706636,1161.8489,0.0026251975,-337.16688,-0.41142421,0.16248975,819.51154,0.33680983,1071.6733,0.0024444821,436.02352,0.50642364,20.130523,860.98572,37.326407,1161.8489,6.825926e-05,-775.43635,-0.90063788,0.0017574308,860.98572,0.0055634688,1161.8489,3.409112e-21,488.07302,0.56687703,2.5424434,860.98572,12.487942,1161.8489,5.2430529e-06,13908.672,289572.77,1.1882363,249.08066,1,daily
-2.712517,-0.060253547,1.46368,45.018378,12.787703,9.8048764,0.7082407,0.05321232,0.0025975971,1.9628948,20.485209,12.342639,-22.101422,0.98484092,0.14040497,0.31362531,1.46368,0.44768382,12.787703,0.24706756,0.045849744,2.0855989,0.094482922,1.9628948,22.073819,12.342639,-58.006943,0.488529,-0.00030502419,-0.1892098,45.018378,0.0016120951,9.8048764,0.0058659222,0.23609432,0.00037127557,0.23030625,0.44768382,0.0016120951,0.24706756,0.0058659222,0.1474409,-0.53177413,-0.19673747,20.485209,2.7029632,-22.101422,10.476043,0.14614358,-204.81495,-0.29739923,1.9628948,688.68689,12.342639,772.62516,0.026016395,-37.264033,-0.19429341,45.018378,191.79257,9.8048764,104.13403,0.22350846,-21.720924,-0.12840529,20.485209,169.15911,-22.101422,93.175336,0.34561095,118.20246,0.19846409,45.018378,595.58613,9.8048764,608.78507,0.21353325,-314.20361,-0.4562358,20.485209,688.68689,-22.101422,772.62516,0.00040937857,-155.45004,-0.26100347,0.44768382,595.58613,0.24706756,608.78507,0.099298482,-291.19937,-0.42283275,22.073819,688.68689,-58.006943,772.62516,0.0011680873,-605.57316,-0.87931564,0.0018605372,688.68689,0.0053954509,772.62516,4.8967721e-19,335.89637,0.48773452,2.7029632,688.68689,10.476043,772.62516,0.00013740475,13488.627,287533.45,1.2060416,93.175336,1,0
-9.0504764,-0.39012255,1.1437524,23.19906,12.996944,3.3269102,0.012824679,-0.83591596,-0.038294104,1.9521251,21.828843,12.325488,-24.410545,0.77931926,0.11245221,0.33132611,1.1437524,0.33940038,12.996944,0.15534138,0.036758339,-0.52402427,-0.025953411,1.9521251,20.190959,12.325488,-57.214116,0.84941178,-0.0006856903,-0.43198013,23.19906,0.0015873191,3.3269102,0.0057143629,0.0053779817,0.00022881481,0.14415174,0.33940038,0.0015873191,0.15534138,0.0057143629,0.37484559,-0.44285005,-0.17113404,21.828843,2.587738,-24.410545,10.380219,0.20727538,-187.79745,-0.27469043,1.9521251,683.66944,12.325488,800.41398,0.040478962,-100.68295,-0.53204707,23.19906,189.23691,3.3269102,98.654255,0.00041021754,-12.370027,-0.071072577,21.828843,174.04783,-24.410545,91.900927,0.60269997,304.93329,0.4967664,23.19906,613.83639,3.3269102,628.10792,0.001111744,-388.92161,-0.56887377,21.828843,683.66944,-24.410545,800.41398,4.7747698e-06,-84.468155,-0.13760695,0.33940038,613.83639,0.15534138,628.10792,0.39713771,-323.13253,-0.4726444,20.190959,683.66944,-57.214116,800.41398,0.00023488667,-606.23258,-0.88673348,0.0017998851,683.66944,0.0052797493,800.41398,9.7450171e-20,331.61034,0.48504485,2.587738,683.66944,10.380219,800.41398,0.00015146138,13199.373,287446.77,1.206213,91.900927,1,1
3.8473955,0.1910428,1.1649125,20.138919,13.07508,8.6211875,0.23765788,-9.3872952,-0.32476002,1.9462508,28.905329,12.304931,-19.973112,0.014603671,0.10697171,0.311552,1.1649125,0.34335107,13.07508,0.15906412,0.05035235,-0.53977208,-0.026511327,1.9462508,20.360056,12.304931,-58.551131,0.84621346,-0.00075556733,-0.49631774,20.138919,0.001522346,8.6211875,0.0055999686,0.0011251663,0.00022020862,0.14465084,0.34335107,0.001522346,0.15906412,0.0055999686,0.37317668,0.061726844,0.023435329,28.905329,2.6339226,-19.973112,10.15854,0.86387625,-193.75406,-0.28649895,1.9462508,676.28194,12.304931,812.40748,0.032297963,53.425447,0.28879023,20.138919,184.99742,8.6211875,103.06635,0.070719037,-73.232022,-0.39935344,28.905329,183.37647,-19.973112,100.85958,0.0022957178,257.35791,0.42508486,20.138919,605.42713,8.6211875,624.32503,0.006252257,-171.91589,-0.25420742,28.905329,676.28194,-19.973112,812.40748,0.058678337,-150.83321,-0.24913521,0.34335107,605.42713,0.15906412,624.32503,0.12107827,-255.68983,-0.37808171,20.360056,676.28194,-58.551131,812.40748,0.004066353,-593.84106,-0.87809687,0.0017329839,676.28194,0.0051577895,812.40748,6.3197892e-19,332.6043,0.49181307,2.6339226,676.28194,10.15854,812.40748,0.00011835464,12894.474,287233.49,1.2057589,100.85958,1,2
0.7023254,0.034326534,1.1332982,20.460131,12.991073,10.069482,0.84015682,-8.1381007,-0.29983434,1.9378113,27.14199,12.294759,-20.604008,0.02476321,0.10757678,0.26551009,1.1332982,0.40517023,12.991073,0.22596298,0.1122278,0.3375375,0.014695554,1.9378113,22.968682,12.294759,-55.880905,0.91439481,-0.00085887426,-0.56426262,20.460131,0.001522118,10.069482,0.005475355,0.00027530093,0.00022560267,0.14821628,0.40517023,0.001522118,0.22596298,0.005475355,0.38131813,0.11371704,0.043744487,27.14199,2.5995741,-20.604008,9.950835,0.74887449,-154.47927,-0.23631549,1.9378113,653.69929,12.294759,799.71574,0.079521893,115.1545,0.62547846,20.460131,184.10627,10.069482,91.342971,3.4823838e-05,-51.355904,-0.28953725,27.14199,177.37236,-20.604008,93.143515,0.030431778,417.65376,0.66386492,20.460131,629.12462,10.069482,652.7859,7.4892008e-06,-246.07815,-0.37643937,27.14199,653.69929,-20.604008,799.71574,0.0042433616,-44.482123,-0.070704788,0.40517023,629.12462,0.22596298,652.7859,0.677527,-293.03451,-0.44827112,22.968682,653.69929,-55.880905,799.71574,0.00053081738,-573.36053,-0.87710134,0.0017337077,653.69929,0.0051160232,799.71574,7.7683285e-19,282.40122,0.43200477,2.5995741,653.69929,9.950835,799.71574,0.00088515812,12790.058,287037.69,1.2066589,93.143516,1,3
3.7723836,0.199719,1.0742688,18.888456,12.899777,12.137197,0.24287338,-3.479116,-0.13607677,1.9439388,25.567303,12.273006,-21.926841,0.31731089,0.021128348,0.045504479,1.0742688,0.46431358,12.899777,0.2678197,0.79214387,2.9872188,0.12268348,1.9439388,24.348989,12.273006,-56.032252,0.36770441,-0.00052303457,-0.34273048,18.888456,0.0015260813,12.137197,0.005435587,0.040731784,0.00022748319,0.14906361,0.46431358,0.0015260813,0.2678197,0.005435587,0.38556972,-0.78280553,-0.31531549,25.567303,2.4826104,-21.926841,9.6909252,0.017927175,-147.44742,-0.22330245,1.9439388,660.30366,12.273006,788.17212,0.09806339,99.877365,0.58291459,18.888456,171.34133,12.137197,80.813233,0.00019098188,-59.406989,-0.37490974,25.567303,158.45677,-21.926841,82.671256,0.0044142947,299.02019,0.467579,18.888456,639.50732,12.137197,640.96962,0.0040347149,-307.94613,-0.46637048,25.567303,660.30366,-21.926841,788.17212,0.00029143471,-86.975464,-0.13600386,0.46431358,639.50732,0.2678197,640.96962,0.4289968,-308.66193,-0.46745452,24.348989,660.30366,-56.032252,788.17212,0.0002808553,-586.3477,-0.88799704,0.0017187735,660.30366,0.0050733915,788.17212,7.3197498e-20,286.93896,0.43455607,2.4826104,660.30366,9.6909252,788.17212,0.00081830043,12683.479,286783.82,1.2079647,82.671256,1,4
-0.79372021,-0.026337807,1.4437617,30.136155,12.784597,10.251343,0.87184084,1.8474078,0.070633132,1.9298938,26.154975,12.259725,-22.377648,0.60495007,-0.02172343,-0.047014775,1.4437617,0.46205538,12.784597,0.28110163,0.77328706,5.4631356,0.2466453,1.9298938,22.149766,12.259725,-56.96442,0.066874072,-0.00046008378,-0.27676783,30.136155,0.0016623456,10.251343,0.0056057189,0.083830559,0.00090183797,0.54250932,0.46205538,0.0016623456,0.28110163,0.0056057189,0.00029874056,-0.93475646,-0.35674434,26.154975,2.6202419,-22.377648,9.5445212,0.0069579937,-148.77703,-0.22141897,1.9298938,671.9254,12.259725,777.8024,0.10100448,58.301707,0.30467753,30.136155,191.35545,10.251343,107.6767,0.055931139,-72.563994,-0.43741549,26.154975,165.8926,-22.377648,88.37878,0.00074880578,299.45383,0.46564598,30.136155,643.09333,10.251343,591.22763,0.0024624008,-394.51557,-0.58714192,26.154975,671.9254,-22.377648,777.8024,1.9703376e-06,-193.95493,-0.30159686,0.46205538,643.09333,0.28110163,591.22763,0.058586421,-294.32128,-0.43802672,22.149766,671.9254,-56.96442,777.8024,0.00073466024,-589.63654,-0.87753275,0.0017737342,671.9254,0.0050525331,777.8024,7.105334e-19,284.63465,0.4236105,2.6202419,671.9254,9.5445212,777.8024,0.0011412777,12631.333,286618.85,1.2080443,88.37878,1,5
-2.0005045,-0.063688669,1.3999044,31.410681,12.852489,12.95161,0.7000992,-2.9063267,-0.10632382,1.9348783,27.33467,12.260937,-19.876446,0.4354358,-0.044744881,-0.092546204,1.3999044,0.48348694,12.852489,0.29644633,0.57523949,3.0773745,0.15403861,1.9348783,19.977942,12.260937,-54.959559,0.25700372,-0.00024052336,-0.14615036,31.410681,0.0016457253,12.95161,0.0054726676,0.37465171,0.0005172885,0.3143225,0.48348694,0.0016457253,0.29644633,0.0054726676,0.05132071,-0.42102822,-0.15508663,27.33467,2.7147938,-19.876446,9.6779119,0.25374185,-142.90818,-0.20373209,1.9348783,701.45152,12.260937,819.53926,0.13205428,14.190075,0.081227009,31.410681,174.69652,12.95161,96.514004,0.62302187,-54.388446,-0.36585123,27.33467,148.66274,-19.876446,78.76508,0.005556404,182.70516,0.27556088,31.410681,663.03013,12.95161,631.47237,0.08951954,-237.34007,-0.33835563,27.33467,701.45152,-19.876446,819.53926,0.010752826,-69.474541,-0.10478338,0.48348694,663.03013,0.29644633,631.47237,0.5255373,-339.38894,-0.48383806,19.977942,701.45152,-54.959559,819.53926,0.00015818576,-620.33987,-0.88436599,0.0017914632,701.45152,0.004972561,819.53926,1.6509651e-19,329.30813,0.4694667,2.7147938,701.45152,9.6779119,819.53926,0.0002621399,12431.403,286719.81,1.2090593,78.76508,1,6
-8.3649852,-0.15683194,0.99960767,53.337255,13.000847,28.183903,0.34035339,-2.629584,-0.093307355,1.9444214,28.181959,12.264461,-20.260492,0.4939788,0.13718063,0.24697376,0.99960767,0.55544619,13.000847,0.51871744,0.12958,2.631677,0.099822582,1.9444214,26.363543,12.264461,-30.44114,0.4641766,0.0001835215,0.11345543,53.337255,0.0016175647,28.183903,0.005432117,0.49164033,0.0007363237,0.45520509,0.55544619,0.0016175647,0.51871744,0.005432117,0.003594072,-0.66630596,-0.24125219,28.181959,2.761865,-20.260492,9.9791132,0.073260024,-144.95557,-0.19221353,1.9444214,754.13826,12.264461,869.13213,0.15583347,23.28026,0.14130773,53.337255,164.74866,28.183903,88.081186,0.39085245,-73.138527,-0.49072033,28.181959,149.0432,-20.260492,80.514731,0.00012320582,26.93129,0.038345419,53.337255,702.33395,28.183903,680.89165,0.81672364,-416.63738,-0.55246816,28.181959,754.13826,-20.260492,869.13213,1.011801e-05,-215.18269,-0.30638229,0.55544619,702.33395,0.51871744,680.89165,0.057826772,-360.66887,-0.47825297,26.363543,754.13826,-30.44114,869.13213,0.00019300603,-666.95252,-0.88439024,0.0018284526,754.13826,0.0050114688,869.13213,1.6421694e-19,382.43315,0.50711277,2.761865,754.13826,9.9791132,869.13213,6.6468744e-05,12528.672,286990.44,1.208763,80.514731,1,7
14.320062,0.36117339,1.4162315,39.648717,12.771097,35.237187,0.020338448,-2.3403687,-0.13120654,1.9419247,17.837286,12.247599,-0.13523342,0.33510109,0.082981956,0.23809152,1.4162315,0.34852966,12.771097,0.83985356,0.13386471,-1.4288635,-0.058438618,1.9419247,24.450672,12.247599,56.268031,0.66878424,-7.7607272e-05,-0.048462863,39.648717,0.0016013761,35.237187,0.0055729666,0.76349532,-0.00032916638,-0.2055522,0.34852966,0.0016013761,0.83985356,0.0055729666,0.19729666,-0.78857244,-0.2895853,17.837286,2.7231093,-0.13523342,10.859591,0.030403,-150.67726,-0.13659272,1.9419247,1103.1134,12.247599,1162.4972,0.31546214,144.83531,0.79211235,39.648717,182.84693,35.237187,116.67551,6.8711813e-10,-82.371283,-0.48281512,17.837286,170.60626,-0.13523342,112.1344,0.00016409823,128.74895,0.12145382,39.648717,1060.065,35.237187,957.83231,0.44938506,-441.95193,-0.40064051,17.837286,1103.1134,-0.13523342,1162.4972,0.0022149871,345.58443,0.32600305,0.34852966,1060.065,0.83985356,957.83231,0.037517384,355.92349,0.32265357,24.450672,1103.1134,56.268031,1162.4972,0.015295177,-966.42974,-0.87609279,0.0018530146,1103.1134,0.0051882687,1162.4972,9.5573489e-19,580.40212,0.52614908,2.7231093,1103.1134,10.859591,1162.4972,3.116722e-05,12970.672,287823.58,1.2049993,112.1344,1,8
15.04149,0.43067154,1.4657001,34.925665,12.735737,58.555855,0.0062022985,0.37359785,0.011920058,1.9379731,31.341949,12.227445,54.95424,0.93051833,0.089172764,0.38261818,1.4657001,0.2330594,12.735737,0.48304932,0.016217643,-13.327332,-0.15206543,1.9379731,87.642091,12.227445,228.86937,0.26322158,-0.00031783904,-0.20167824,34.925665,0.0015759709,58.555855,0.0056934211,0.21824767,3.8099878e-05,0.024175495,0.2330594,0.0015759709,0.48304932,0.0056934211,0.88385424,0.33782261,0.11582345,31.341949,2.916703,54.95424,13.248622,0.3952914,-397.84172,-0.19731251,2.0285231,2016.3025,12.199973,1871.4397,0.16518356,88.437121,0.43310527,34.925665,204.19313,58.555855,244.80802,0.0058857721,-83.858051,-0.39915277,31.341949,210.09011,54.95424,242.52454,0.0023085377,373.67193,0.30148553,35.890068,1239.4357,55.922294,1378.1264,0.078399674,633.53812,0.31420787,32.016658,2016.3025,53.858868,1871.4397,0.024738079,-30.480338,-0.024592109,0.24248847,1239.4357,0.47328821,1378.1264,0.88848132,1157.1959,0.57391978,86.817085,2016.3025,220.06215,1871.4397,1.0677284e-05,-1595.1065,-0.79110476,0.0017241503,2016.3025,0.0056758187,1871.4397,4.9107793e-12,1018.2583,0.50501266,2.7239235,2016.3025,12.890063,1871.4397,0.0001572102,14189.547,289873.34,1.1895715,242.88017,1,9
12.912536,0.26311861,1.4212517,49.074964,12.764666,81.118477,0.10092436,-4.2729364,-0.10955196,1.9301829,39.003741,12.198037,84.939468,0.42154435,0.055526772,0.25742846,1.4212517,0.21569788,12.764666,0.46777364,0.10879082,-15.113397,-0.13352588,1.9301829,113.18702,12.198037,304.65379,0.32655244,-0.00065804162,-0.40205563,49.074964,0.001636693,81.118477,0.0057364576,0.010119093,-0.00023757441,-0.14515515,0.21569788,0.001636693,0.46777364,0.0057364576,0.37149482,0.51862547,0.15567774,39.003741,3.3314042,84.939468,14.986512,0.25191446,-294.3746,-0.19099052,2.0511281,1541.3047,12.234328,1861.0368,0.19348127,12.180082,0.055744318,49.074964,218.49907,81.118477,449.92466,0.73261864,-31.6954,-0.14837883,39.003741,213.61133,84.939468,432.08491,0.27510713,353.94112,0.29605659,49.690144,1195.5185,76.577301,1520.3597,0.079569036,606.92142,0.3937712,40.149838,1541.3047,82.030329,1861.0368,0.0056218203,76.967732,0.064380211,0.22487023,1195.5185,0.45838319,1520.3597,0.70912156,979.36629,0.63541379,113.704,1541.3047,288.26162,1861.0368,1.2231739e-06,-1255.6529,-0.81466883,0.001590655,1541.3047,0.005763976,1861.0368,1.8531034e-12,876.12255,0.56842915,3.186198,1541.3047,14.45681,1861.0368,2.501053e-05,14409.94,291492.15,1.1699609,433.35895,1,10
15.720006,0.28905362,1.477013,54.384396,12.742815,85.160211,0.070451015,6.7084448,0.15258162,1.9623749,43.966271,12.142368,107.35075,0.27069203,0.061430684,0.36802359,1.4959595,0.16692051,12.737681,0.44612984,0.021161418,1.7666838,0.011973015,1.9682733,147.55546,12.013602,337.07179,0.93423038,-0.0010663709,-0.65681617,54.384396,0.0016235455,85.160211,0.0059006491,4.1651893e-06,-0.00034996067,-0.21291829,0.16692051,0.0016436384,0.44612984,0.0058911317,0.19312349,0.38829916,0.10778633,43.966271,3.6024898,107.35075,16.153118,0.43786987,-287.3577,-0.19599359,2.0116124,1466.1587,12.180002,2002.9706,0.17712191,69.76297,0.31220144,54.384396,223.45499,85.160211,597.3328,0.049849337,24.384602,0.11358755,43.966271,214.67671,107.35075,585.79476,0.41346259,673.88957,0.52726449,53.061845,1278.0864,81.435154,1725.4083,0.00067047298,466.17165,0.31508158,46.151638,1479.5268,106.28833,2014.2425,0.029161079,174.89008,0.13505531,0.1665315,1294.9515,0.43773924,1732.5297,0.42546583,843.68899,0.55795713,151.01755,1512.1036,325.48104,2068.7966,6.8268862e-05,-1222.2752,-0.83365823,0.0016767002,1466.1587,0.0057209131,2002.9706,1.0478435e-13,1001.1333,0.68282742,3.5907556,1466.1587,15.84529,2002.9706,6.4865569e-08,14302.283,292948.76,1.1549365,575.83207,1,11
12.81757,0.25141974,1.7090943,50.980764,12.594694,86.074127,0.11281283,1.8719577,0.040650375,1.948711,46.050195,12.151247,115.5844,0.77040207,0.046779336,0.23972909,1.7298693,0.19513416,12.603756,0.44920502,0.13624391,-8.7173228,-0.067574842,1.9457648,129.00249,12.101951,324.94678,0.63067874,-0.0011404209,-0.65960219,50.980764,0.0017289526,86.074127,0.0061534752,2.7246711e-06,-7.6524502e-05,-0.043709009,0.19513416,0.0017507718,0.44920502,0.0061493279,0.78885167,1.0808872,0.28453273,46.050195,3.7988149,115.5844,16.69524,0.03704463,-232.79854,-0.14085812,2.0036004,1652.7166,12.186285,2078.2185,0.32921264,77.086381,0.32350344,50.980764,238.28613,86.074127,672.56853,0.039091836,69.223201,0.29468632,46.050195,234.9047,115.5844,669.78613,0.030532802,1007.4976,0.63278687,49.972561,1592.1595,84.330668,1769.3683,1.5433115e-05,609.80551,0.36535445,47.424875,1669.0792,114.32964,2085.2898,0.0098407079,93.548043,0.057977634,0.19664351,1613.5195,0.4477612,1770.359,0.7295304,1069.5992,0.63707563,131.70511,1678.9203,316.6976,2110.4528,1.1245194e-06,-1410.0197,-0.85315276,0.0017454215,1652.7166,0.0058694202,2078.2185,3.6264989e-15,1145.179,0.69290709,3.7443221,1652.7166,16.334511,2078.2185,2.4608829e-08,14673.55,293532.76,1.1456588,665.95514,1,12
22.536216,0.49375247,1.4515158,45.64274,12.699062,90.507001,0.00076620714,2.3153985,0.052993197,1.8736757,43.692373,12.105082,110.36853,0.70079219,0.093521318,0.61832406,1.4129007,0.15124968,12.638418,0.43101576,1.2787523e-05,0.094421766,0.0008812134,1.8736757,107.14972,12.105082,273.62598,0.99490543,-0.0011224269,-0.64837201,45.64274,0.0017311465,90.507001,0.0061900114,2.5847766e-06,-0.00060588637,-0.34630002,0.15124968,0.0017495996,0.43101576,0.0062041969,0.024667513,0.8175504,0.22065699,43.692373,3.7050736,110.36853,17.012755,0.10547468,-161.27841,-0.11340552,1.948347,1422.1389,12.17758,1975.8887,0.4187849,76.178188,0.32146598,45.64274,236.97123,90.507001,688.82613,0.03555066,91.128035,0.37797885,43.692373,241.09295,110.36853,672.96893,0.0044389177,785.75605,0.58342198,46.170047,1346.8057,90.740309,1771.2157,5.0103371e-05,394.24707,0.27539744,44.606334,1431.5568,109.14776,1991.2675,0.048150447,349.12967,0.25667376,0.15272839,1360.2079,0.43270206,1785.7285,0.1052414,892.99719,0.62379446,107.86856,1431.5568,268.37653,1991.2675,7.7960176e-07,-1246.5956,-0.87656391,0.001845178,1422.1389,0.0059385052,1975.8887,8.0047085e-18,992.64798,0.6979965,3.6506276,1422.1389,16.686566,1975.8887,6.275067e-09,14846.263,293917.75,1.1435264,679.93616,1,13
15.491821,0.36956178,1.4470189,41.919436,12.635479,69.33194,0.01247256,5.9421253,0.15059357,1.8732512,39.458027,12.138426,91.139447,0.27705823,0.053077348,0.28314055,1.4066609,0.18745937,12.575824,0.43324863,0.062548611,9.3598241,0.11352955,1.8707497,82.44395,12.106626,188.85194,0.40920586,-0.0011762987,-0.69712267,41.919436,0.0016873625,69.33194,0.0063494757,1.0369332e-07,-0.0003138008,-0.18407068,0.18745937,0.0017047843,0.43324863,0.0063619078,0.23166167,0.60981421,0.17454658,39.458027,3.4937048,91.139447,16.993864,0.20682134,-109.68313,-0.089680596,1.9276013,1223.042,12.175558,1757.1085,0.51899437,94.436109,0.39701488,41.919436,237.86542,69.33194,652.36374,0.0069279956,45.128796,0.18334114,39.458027,246.14659,91.139447,632.77147,0.18449795,713.25852,0.58486123,41.919436,1219.5346,69.33194,1661.5956,2.4526023e-05,207.61149,0.17029218,39.737938,1219.1487,91.334471,1803.0836,0.22743881,159.28904,0.12948099,0.18745937,1230.2118,0.43324863,1675.1272,0.4022056,754.09535,0.61261113,82.985903,1230.9527,186.48054,1770.1445,1.086078e-06,-1036.4072,-0.84740118,0.0018064675,1223.042,0.0061370172,1757.1085,6.5099784e-16,791.84959,0.6474427,3.5029346,1223.042,16.660911,1757.1085,1.2166381e-07,15342.543,293903.81,1.1458924,648.5494,1,14
15.393862,0.42508803,1.8175702,36.213351,12.418206,45.930912,0.0032313933,1.9816575,0.061860593,1.8795622,32.034248,12.214396,48.567866,0.65367469,-0.043621295,-0.17159099,1.8175702,0.25421669,12.418206,0.49635875,0.25418621,4.4414245,0.099610085,1.8783318,44.588101,12.181771,80.683851,0.46513301,-0.001130651,-0.65104134,36.213351,0.0017366808,45.930912,0.0065068408,9.633985e-07,-0.00043511892,-0.25054629,0.25421669,0.0017366808,0.49635875,0.0065068408,0.093068767,0.45974782,0.13426559,32.034248,3.4241671,48.567866,16.241737,0.32841886,-144.9215,-0.11160288,1.8783318,1298.5462,12.181771,1603.4589,0.41285164,56.982704,0.25406857,36.213351,224.28081,45.930912,567.32831,0.088411245,24.273826,0.097868971,32.034248,248.02372,48.567866,559.78724,0.47717482,838.38888,0.65108347,36.213351,1287.6826,45.930912,1464.2826,9.6132554e-07,50.017631,0.038661339,32.034248,1293.7377,48.567866,1631.136,0.77929392,266.28926,0.20679727,0.25421669,1287.6826,0.49635875,1464.2826,0.16791758,723.25696,0.55697436,44.588101,1298.5462,80.683851,1603.4589,8.2648229e-06,-1094.7948,-0.84309268,0.0019146174,1298.5462,0.0062304416,1603.4589,3.6049215e-16,839.30257,0.64634015,3.4381466,1298.5462,16.167441,1603.4589,7.428273e-08,15576.104,293395.94,1.1533972,567.55417,1,15
3.8980213,0.16025661,1.6133612,24.323623,12.599201,24.857057,0.29873288,0.86369704,0.044161551,1.850481,19.55767,12.230088,6.4748694,0.74885878,0.050557503,0.13034893,1.6133612,0.38786281,12.599201,0.68388382,0.39903151,-0.20491441,-0.012432765,1.8506984,16.481805,12.19653,-19.038964,0.92753761,-0.00092138701,-0.51875563,24.323623,0.0017761484,24.857057,0.0066119232,0.00030903612,-0.00059098865,-0.33273607,0.38786281,0.0017761484,0.68388382,0.0066119232,0.027321901,-0.35941467,-0.11849025,19.55767,3.0332849,6.4748694,15.016007,0.38890526,-76.760058,-0.068501218,1.8506984,1120.5649,12.19653,1301.5651,0.61591771,17.495501,0.085381349,24.323623,204.91011,24.857057,427.8029,0.58159304,-14.69028,-0.074414476,19.55767,197.41158,6.4748694,397.84001,0.58923412,772.13552,0.68586376,24.323623,1125.7856,24.857057,1187.7056,2.7780394e-07,-504.83124,-0.4508754,19.55767,1119.6691,6.4748694,1322.6095,0.00055119042,422.45883,0.37525693,0.38786281,1125.7856,0.68388382,1187.7056,0.01207348,-30.475367,-0.027196433,16.481805,1120.5649,-19.038964,1301.5651,0.84228938,-969.15655,-0.86488215,0.0018938585,1120.5649,0.0063250613,1301.5651,8.5316161e-18,685.68899,0.61191369,3.0620787,1120.5649,14.937768,1301.5651,5.422487e-07,15812.653,292131.71,1.1686467,411.79385,1,16
2.9438271,0.11620748,1.791651,25.332509,12.50637,9.4892358,0.44714223,-5.4324307,-0.18612106,1.8434866,29.18762,12.208725,-17.789565,0.16962081,0.12175049,0.27764392,1.791651,0.43851306,12.50637,0.26825505,0.064809216,-2.1407371,-0.089102629,1.8434866,24.025521,12.208725,-64.537168,0.51372728,-0.00084072957,-0.470759,25.332509,0.0017859023,9.4892358,0.0063408938,0.0011001187,8.2109663e-05,0.045976571,0.43851306,0.0017859023,0.26825505,0.0063408938,0.76425356,-0.93646523,-0.35041987,29.18762,2.672409,-17.789565,13.222532,0.0081044626,-81.919904,-0.1129772,1.8434866,725.10123,12.208725,912.38973,0.40708491,48.978269,0.25678232,25.332509,190.73848,9.4892358,253.02055,0.088613317,67.432067,0.31193358,29.18762,216.17444,-17.789565,250.68461,0.019264387,340.99298,0.4988126,25.332509,683.6094,9.4892358,813.30836,0.00048731695,-435.23897,-0.6002458,29.18762,725.10123,-17.789565,912.38973,1.0092673e-06,-93.720458,-0.1370965,0.43851306,683.6094,0.26825505,813.30836,0.36916304,-407.97116,-0.56264029,24.025521,725.10123,-64.537168,912.38973,6.3815426e-06,-649.60228,-0.89587805,0.001893502,725.10123,0.0061020153,912.38973,1.1327107e-20,447.63537,0.6173419,2.672409,725.10123,13.222532,912.38973,4.0265603e-07,15255.038,290368.3,1.1859565,250.68461,1,17
4.0763149,0.13406534,1.7681514,30.405433,12.491402,12.746072,0.37439499,-2.2687394,-0.10685344,1.8255751,21.232253,12.213706,-24.650658,0.43313928,0.057168013,0.14905488,1.7681514,0.38353667,12.491402,0.18591522,0.32283205,-0.28953158,-0.012709596,1.8255751,22.78055,12.213706,-61.894509,0.92592861,2.7214255e-05,0.014584891,30.405433,0.001865921,12.746072,0.006320129,0.92335993,0.00066108816,0.35429589,0.38353667,0.001865921,0.18591522,0.006320129,0.015702493,-0.50626948,-0.20767061,21.232253,2.4378485,-24.650658,12.397691,0.1245848,-84.985613,-0.11843762,1.8255751,717.55592,12.213706,843.1807,0.38463848,71.632914,0.4225585,30.405433,169.52189,12.746072,150.33577,0.0034396182,-65.443995,-0.33475961,21.232253,195.49549,-24.650658,154.24886,0.011674516,46.465543,0.071733599,30.405433,647.75145,12.746072,712.67482,0.63568338,-408.45467,-0.56923044,21.232253,717.55592,-24.650658,843.1807,4.695334e-06,-214.487,-0.33112547,0.38353667,647.75145,0.18591522,712.67482,0.024587262,-400.55674,-0.55822373,22.78055,717.55592,-61.894509,843.1807,7.8099095e-06,-650.91128,-0.90712273,0.0020288552,717.55592,0.0059636627,843.1807,6.0005426e-22,380.64765,0.53047803,2.4378485,717.55592,12.397691,843.1807,2.6068385e-05,14909.157,289497.67,1.1963951,154.24886,1,18
5.9336813,0.25204061,1.7688668,23.542561,12.410281,4.5395703,0.094870361,-0.015580835,-0.00068182709,1.8172117,22.851593,12.201635,-26.704313,0.99602077,-0.016129762,-0.050604967,1.7688668,0.31873871,12.410281,0.17543156,0.74130373,-0.88857022,-0.037609034,1.8172117,23.62651,12.201635,-60.095099,0.78317036,-0.00099236761,-0.54396381,23.542561,0.0018243265,4.5395703,0.0061999199,0.00011237996,0.00063524505,0.34820797,0.31873871,0.0018243265,0.17543156,0.0061999199,0.019078041,-0.46024165,-0.19151049,22.851593,2.403219,-26.704313,11.976629,0.15738087,-69.437551,-0.092407546,1.8172117,751.42728,12.201635,805.56957,0.49817148,0.99977287,0.0068260393,23.542561,146.46456,4.5395703,98.160026,0.96450395,-62.561972,-0.35768876,22.851593,174.90617,-26.704313,114.55701,0.0067995558,293.6512,0.44095856,23.542561,665.93831,4.5395703,693.38911,0.0024306657,-522.38203,-0.69518641,22.851593,751.42728,-26.704313,805.56957,2.7636804e-09,-225.35535,-0.33840274,0.31873871,665.93831,0.17543156,693.38911,0.022981786,-454.66117,-0.60506344,23.62651,751.42728,-60.095099,805.56957,7.8326431e-07,-685.96541,-0.91288329,0.0020854304,751.42728,0.0059513639,805.56957,1.1484389e-22,375.77906,0.50008706,2.403219,751.42728,11.976629,805.56957,8.6927469e-05,14878.41,289046.46,1.20105,114.55701,1,19
2.5986948,0.12841944,1.7651528,20.235992,12.402629,5.850428,0.40050981,0.49366533,0.020556342,1.8001381,24.015232,12.19031,-24.701017,0.88046807,-0.018404015,-0.042347767,1.7651528,0.43459233,12.402629,0.27583976,0.78238881,-2.4751472,-0.099238995,1.8001381,24.941277,12.19031,-55.229422,0.46680575,-0.00079011454,-0.40885532,20.235992,0.001932504,5.850428,0.006269799,0.00529478,0.00074358105,0.38477595,0.43459233,0.001932504,0.27583976,0.006269799,0.0090581146,-0.3422078,-0.1425998,24.015232,2.3997777,-24.701017,11.789827,0.29444492,-57.943581,-0.075313938,1.8001381,769.36066,12.19031,801.3231,0.58117391,25.316283,0.174901,20.235992,144.74636,5.850428,90.578358,0.25049838,-54.24084,-0.28876574,24.015232,187.83682,-24.701017,109.06866,0.030896908,360.74267,0.5129214,20.235992,703.30985,5.850428,670.02969,0.00031492254,-535.00059,-0.69538335,24.015232,769.36066,-24.701017,801.3231,2.7236831e-09,-245.31473,-0.34880036,0.43459233,703.30985,0.27583976,670.02969,0.018861313,-483.09313,-0.62791505,24.941277,769.36066,-55.229422,801.3231,2.218251e-07,-704.59039,-0.91581286,0.0021293979,769.36066,0.0059023243,801.3231,4.7382147e-23,378.42854,0.49187405,2.3997777,769.36066,11.789827,801.3231,0.00011808914,14755.811,288840.13,1.2022171,109.06866,1,20
-2.9730276,-0.17131591,1.7896777,17.354066,12.393195,8.8169593,0.2720143,-1.2840959,-0.063576467,1.7896021,20.197661,12.193927,-20.11077,0.64157086,-0.054007755,-0.13308879,1.7896777,0.40580242,12.393195,0.21608662,0.39488098,-1.163592,-0.048403592,1.7896021,24.039374,12.193927,-55.484856,0.72314596,-0.0002351588,-0.1228277,17.354066,0.0019145421,8.8169593,0.0061740449,0.43264167,0.00078636525,0.4107328,0.40580242,0.0019145421,0.21608662,0.0061740449,0.0062214205,0.13197877,0.057737878,20.197661,2.2858264,-20.11077,11.445834,0.67252981,-74.646672,-0.10001545,1.7896021,746.35138,12.193927,780.61019,0.46330945,74.900232,0.59745987,17.354066,125.36446,8.8169593,74.000063,2.3379377e-05,-76.945485,-0.42271826,20.197661,182.02546,-20.11077,92.308455,0.0011720813,198.36256,0.28984132,17.354066,684.38332,8.8169593,651.73084,0.05938882,-338.01765,-0.45289344,20.197661,746.35138,-20.11077,780.61019,0.00045688174,-201.39402,-0.29427079,0.40580242,684.38332,0.21608662,651.73084,0.055434818,-438.09497,-0.5869822,24.039374,746.35138,-55.484856,780.61019,1.9861116e-06,-680.69684,-0.91203266,0.0020996808,746.35138,0.0058212647,780.61019,1.4764544e-22,339.0038,0.45421474,2.2858264,746.35138,11.445834,780.61019,0.00043753583,14553.162,288478.31,1.2046029,92.308455,1,21
-2.5763634,-0.093957348,1.8892359,27.420563,12.311738,-1.42719,0.53927532,-2.2730056,-0.088313051,1.7815305,25.738049,12.188998,-22.448358,0.51747973,0.0076610423,0.021059469,1.8892359,0.36378137,12.311738,0.23977505,0.89078502,-1.374707,-0.058527195,1.7815305,23.488346,12.188998,-55.247164,0.66831135,-0.0012317462,-0.65789485,27.420563,0.0018722539,-1.42719,0.0061169868,9.0690383e-07,0.00094642485,0.50550027,0.36378137,0.0018722539,0.23977505,0.0061169868,0.0003971539,-0.1943588,-0.078318236,25.738049,2.4816545,-22.448358,11.206625,0.5661412,-89.397782,-0.12117826,1.7815305,737.73777,12.188998,768.41942,0.37365543,4.956027,0.042497021,27.420563,116.62057,-1.42719,68.759239,0.78164057,-82.614432,-0.39918422,25.738049,206.95816,-22.448358,95.171744,0.0023065245,401.64228,0.5992251,27.420563,670.26944,-1.42719,628.23379,1.3666882e-05,-402.21502,-0.54520052,25.738049,737.73777,-22.448358,768.41942,1.39361e-05,-295.82151,-0.44134716,0.36378137,670.26944,0.23977505,628.23379,0.0024067487,-418.51344,-0.56729296,23.488346,737.73777,-55.247164,768.41942,5.1421214e-06,-666.59122,-0.90356119,0.0020726805,737.73777,0.0057528146,768.41942,1.5818035e-21,333.77339,0.45242823,2.4816545,737.73777,11.206625,768.41942,0.00046387568,14382.036,288231.59,1.2049895,95.171744,1,22
11.825883,0.18678082,1.3159506,63.314224,12.730442,8.8388079,0.23625258,-1.9873426,-0.088277868,1.7698541,22.512354,12.185711,-21.581625,0.51764725,0.02380848,0.055325479,1.3159506,0.43033481,12.730442,0.29807865,0.72784299,-2.1087811,-0.094126625,1.7698541,22.403662,12.185711,-56.033198,0.49017742,3.630612e-05,0.019932512,63.314224,0.0018214523,8.8388079,0.005994197,0.90029287,0.00075979868,0.41713894,0.43033481,0.0018214523,0.29807865,0.005994197,0.0059903597,-0.22510689,-0.094764424,22.512354,2.3754367,-21.581625,11.005591,0.48722867,-89.950817,-0.12525928,1.7698541,718.11701,12.185711,777.53915,0.35765483,83.771481,0.58442387,63.314224,143.34028,8.8388079,76.886265,4.8282235e-05,-34.785803,-0.17390744,22.512354,200.02482,-21.581625,92.950034,0.199897,41.269063,0.062481284,63.314224,660.5028,8.8388079,645.73752,0.69425345,-426.71062,-0.59420765,22.512354,718.11701,-21.581625,777.53915,1.3787224e-06,-203.56678,-0.30819972,0.43033481,660.5028,0.29807865,645.73752,0.04706483,-380.9154,-0.5304364,22.403662,718.11701,-56.033198,777.53915,2.6113518e-05,-652.02617,-0.90796648,0.0020401199,718.11701,0.0056258653,777.53915,4.7421936e-22,310.01331,0.43170305,2.3754367,718.11701,11.005591,777.53915,0.00089338164,14064.663,288037.04,1.20546,92.950034,1,23
12.126654,0.67356551,2.0854026,18.003674,10.503054,36.19251,2.6097265e-06,-3.6917236,-0.2264132,1.9909477,16.305249,10.583051,22.00108,0.10304727,0.095180481,0.55915796,2.0854026,0.1702211,10.503054,0.37985699,0.00021539195,-8.4495795,-0.34224154,1.9909477,24.688936,10.583051,70.808853,0.012127951,-0.0002195926,-0.13600777,18.003674,0.0016145592,36.19251,0.0063489104,0.40904235,0.00036340341,0.22507902,0.1702211,0.0016145592,0.37985699,0.0063489104,0.16831534,-1.4957464,-0.37942749,16.305249,3.9421139,22.00108,15.733581,0.0050783421,-1046.8099,-0.7487319,1.9909477,1398.1104,10.583051,2193.4691,1.1440247e-10,-4.4476907,-0.035492849,18.003674,125.31231,36.19251,239.41042,0.83015042,-5.6599147,-0.049768432,16.305249,113.725,22.00108,248.64605,0.72341421,-717.48653,-0.47861921,18.003674,1499.0759,36.19251,1916.2595,0.0020549835,-27.959434,-0.019998016,16.305249,1398.1104,22.00108,2193.4691,0.88697707,-976.3748,-0.65131778,0.1702211,1499.0759,0.37985699,1916.2595,7.1104326e-06,668.29773,0.47800069,24.688936,1398.1104,70.808853,2193.4691,0.00029481098,-623.96162,-0.44628923,0.0020327544,1398.1104,0.0054805601,2193.4691,0.00080953489,926.20168,0.66246677,3.9421139,1398.1104,15.733581,2193.4691,6.549436e-08,13701.4,292955.35,1.1802578,248.64605,2,daily
4.5712101,0.28434457,1.8696356,16.076305,11.082696,7.4981074,0.11473657,-7.5252575,-0.30224274,1.9443934,24.898059,10.711518,-17.797801,0.027834008,0.024849513,0.049309309,1.8696356,0.50395175,11.082696,0.35721591,0.7886987,2.594964,0.13255722,1.9443934,19.57618,10.711518,-65.116189,0.34404453,-0.00067325293,-0.387446,16.076305,0.0017376691,7.4981074,0.0064072201,0.028458597,-7.9818446e-05,-0.045934204,0.50395175,0.0017376691,0.35721591,0.0064072201,0.80286837,0.053576319,0.015140525,24.898059,3.5386038,-17.797801,13.119842,0.91431105,-1239.2615,-0.83435492,1.9443934,1485.293,10.711518,1837.3743,8.4926871e-15,19.592824,0.36518907,16.076305,53.651179,7.4981074,44.664025,0.039857375,-2.5255519,-0.054813653,24.898059,46.075235,-17.797801,43.758711,0.69666426,-68.76095,-0.047944045,16.076305,1434.1917,7.4981074,1252.605,0.79442276,130.73294,0.088018282,24.898059,1485.293,-17.797801,1837.3743,0.53084191,-96.419501,-0.067229161,0.50395175,1434.1917,0.35721591,1252.605,0.71467192,-420.8117,-0.28331898,19.57618,1485.293,-65.116189,1837.3743,0.039807433,-575.63774,-0.38755838,0.0021580511,1485.293,0.0051363843,1837.3743,0.0041415576,757.73226,0.51015676,3.5386038,1485.293,13.119842,1837.3743,9.5276374e-05,12840.961,290268.42,1.2037362,43.758711,2,0
1.9534342,0.13929041,1.8256325,14.024183,11.208528,8.0830692,0.46288944,-3.186532,-0.17033346,1.9367016,18.707611,10.701342,-25.127478,0.2226879,0.067220087,0.14880124,1.8256325,0.45174413,11.208528,0.25153593,0.4325882,2.4816384,0.12261405,1.9367016,20.23943,10.701342,-63.587841,0.38175604,-0.00074251467,-0.41473602,14.024183,0.0017903308,8.0830692,0.0062750446,0.022678735,0.00053808403,0.30055006,0.45174413,0.0017903308,0.25153593,0.0062750446,0.1065721,-0.62915297,-0.17859677,18.707611,3.5227567,-25.127478,12.817967,0.20071532,-1208.3676,-0.84338194,1.9380044,1432.7643,10.736945,1783.6063,4.289037e-15,-21.624911,-0.47604654,14.024183,45.426044,8.0830692,40.545207,0.0078341251,4.1347531,0.10199139,18.707611,40.540216,-25.127478,41.115409,0.46740883,-79.974046,-0.059612557,14.024183,1341.5638,8.0830692,1160.5029,0.75434461,-248.93233,-0.17374269,18.099162,1432.7643,-25.863282,1783.6063,0.21801844,-252.26765,-0.18804,0.45174413,1341.5638,0.25153593,1160.5029,0.31969385,-537.97267,-0.37547883,19.58258,1432.7643,-64.383249,1783.6063,0.0060890178,-597.53439,-0.41705002,0.0021344408,1432.7643,0.0049867651,1783.6063,0.0020996721,751.24358,0.52433157,3.54031,1432.7643,12.770971,1783.6063,6.6136685e-05,12466.913,289923.53,1.2046639,40.241065,2,1
3.6881329,0.17641893,1.6329818,20.90554,11.363731,9.4093241,0.35994797,-2.3852678,-0.10076576,1.9365423,23.671411,10.693561,-21.676463,0.47280434,0.083310058,0.1595527,1.6329818,0.52214759,11.363731,0.46530194,0.4083852,4.1676573,0.21310438,1.9365423,19.556883,10.693561,-62.55643,0.12550077,-0.00045721604,-0.25734252,20.90554,0.0017766828,9.4093241,0.0062261444,0.17775467,0.00064048708,0.36049601,0.52214759,0.0017766828,0.46530194,0.0062261444,0.054719628,-0.64214662,-0.17558018,23.671411,3.6572842,-21.676463,12.594746,0.20855127,-1291.4499,-0.83943599,1.9365423,1538.4734,10.693561,1856.0833,4.0940708e-15,38.686297,0.56010761,20.90554,69.0694,9.4093241,50.338194,0.0015789525,4.054274,0.072701315,23.671411,55.766172,-21.676463,47.519057,0.60491999,-78.916884,-0.060171762,20.90554,1311.5269,9.4093241,1080.0338,0.75651344,-70.835077,-0.046042446,23.671411,1538.4734,-21.676463,1856.0833,0.7433843,-302.17759,-0.23040136,0.52214759,1311.5269,0.46530194,1080.0338,0.22919621,-474.45301,-0.30839209,19.556883,1538.4734,-62.55643,1856.0833,0.024661672,-617.10169,-0.40111302,0.0020774,1538.4734,0.0049011589,1856.0833,0.0029145641,840.32145,0.54620474,3.6572842,1538.4734,12.594746,1856.0833,2.3299969e-05,12252.897,289780.37,1.2039102,47.519057,2,2
-0.14168839,-0.013802111,1.6039441,10.265704,11.385891,6.08545,0.94334966,-1.6583604,-0.067517151,1.9371028,24.562061,10.696371,-20.729447,0.63097119,0.13223369,0.25667045,1.6039441,0.5151886,11.385891,0.40607773,0.17892969,4.5689742,0.19804742,1.9371028,23.070102,10.696371,-61.209736,0.15515656,-0.00067688337,-0.38908379,10.265704,0.0017396853,6.08545,0.0061888917,0.036967709,-0.00044325074,-0.25478788,0.5151886,0.0017396853,0.40607773,0.0061888917,0.18225009,-1.2079068,-0.31593148,24.562061,3.8233191,-20.729447,12.591801,0.021192184,-1305.5488,-0.83896699,1.9371028,1556.1385,10.696371,1887.8992,4.3839209e-15,-27.613471,-0.2192848,10.265704,125.92515,6.08545,63.703075,0.2530722,6.147998,0.064365572,24.562061,95.51687,-20.729447,51.199597,0.64703137,238.19398,0.16347272,10.265704,1457.087,6.08545,1131.0601,0.39681363,-33.4898,-0.021521092,24.562061,1556.1385,-20.729447,1887.8992,0.87843173,-187.52761,-0.12870035,0.5151886,1457.087,0.40607773,1131.0601,0.50581908,-493.20716,-0.31694297,23.070102,1556.1385,-61.209736,1887.8992,0.020759731,-491.25308,-0.31568725,0.0020839621,1556.1385,0.0048878726,1887.8992,0.021297735,784.4476,0.50409883,3.8233191,1556.1385,12.591801,1887.8992,0.00011889514,12219.682,289792.81,1.2033962,51.199597,2,3
2.8436159,0.099876706,1.6046332,28.471263,11.374401,7.3818569,0.60621353,3.3078929,0.12745436,1.936784,25.953549,10.687324,-27.021558,0.36310057,-0.02102821,-0.042124079,1.6046332,0.4991969,11.374401,0.31173594,0.82823729,5.0189546,0.25087131,1.936784,20.006092,10.687324,-61.278268,0.069998909,-0.00055549665,-0.31135527,28.471263,0.0017841248,7.3818569,0.0061693931,0.10015449,0.00030752596,0.17236797,0.4991969,0.0017841248,0.31173594,0.0061693931,0.37125873,-1.3427483,-0.34006969,25.953549,3.9484505,-27.021558,12.638556,0.012722067,-1253.7931,-0.849469,1.936784,1475.9728,10.687324,1856.5692,8.9728855e-16,23.77169,0.27067344,28.471263,87.824244,7.3818569,59.21428,0.15555683,7.3254823,0.10657279,25.953549,68.736889,-27.021558,47.974213,0.44753681,158.64264,0.12096747,28.471263,1311.4488,7.3818569,1088.7104,0.53192031,-338.03645,-0.22902621,25.953549,1475.9728,-27.021558,1856.5692,0.099027833,-55.662212,-0.042443299,0.4991969,1311.4488,0.31173594,1088.7104,0.82695503,-681.47375,-0.4617116,20.006092,1475.9728,-61.278268,1856.5692,0.00050138721,-570.39193,-0.38645153,0.0021169491,1475.9728,0.0048427271,1856.5692,0.0042594001,765.64094,0.51873649,3.9484505,1475.9728,12.638556,1856.5692,6.9124091e-05,12106.818,289841.95,1.2035374,47.974213,2,4
5.1839679,0.25389427,1.6111573,20.417822,11.37535,12.789352,0.1838412,-3.4135504,-0.11960127,1.9425972,28.541088,10.686169,-19.402641,0.39365049,0.054060237,0.12667303,1.6111573,0.42676989,11.37535,0.21956365,0.51259991,5.6728215,0.29095724,1.9425972,19.497097,10.686169,-60.921677,0.034544585,-1.9359888e-05,-0.011060735,20.417822,0.0017503256,12.789352,0.0060397793,0.95458866,0.00078850545,0.45049074,0.42676989,0.0017503256,0.21956365,0.0060397793,0.014191662,-0.88341216,-0.22772722,28.541088,3.8792559,-19.402641,12.281811,0.10101055,-1220.8616,-0.83801235,1.9425972,1456.8539,10.686169,1835.6893,5.0354628e-15,19.429642,0.19382881,20.417822,100.24125,12.789352,61.949648,0.31370314,-0.28296435,-0.0036429686,28.541088,77.674113,-19.402641,49.049017,0.97934597,-165.21824,-0.12096153,20.417822,1365.8742,12.789352,1126.3497,0.53194061,0.7506313,0.00051524129,28.541088,1456.8539,-19.402641,1835.6893,0.9970785,-496.66334,-0.36362305,0.42676989,1365.8742,0.21956365,1126.3497,0.052501686,-717.80913,-0.4927118,19.497097,1456.8539,-60.921677,1835.6893,0.00017829577,-491.46206,-0.33734477,0.0020487074,1456.8539,0.0047557688,1835.6893,0.013502673,745.56194,0.51176162,3.8792559,1456.8539,12.281811,1835.6893,8.9784384e-05,11889.422,289464.77,1.2044426,49.049017,2,5
0.31310559,0.012594124,1.5397637,24.861244,11.489762,5.3413017,0.94928408,2.0658836,0.085227363,1.9519915,24.239675,10.689534,-24.050751,0.54400019,0.027820697,0.088431473,1.5397637,0.31460176,11.489762,0.13076395,0.65452879,3.1132976,0.16969757,1.9519915,18.346153,10.689534,-55.912101,0.22444536,-0.00042337654,-0.2431511,24.861244,0.0017412076,5.3413017,0.0059304001,0.2124751,0.00065315082,0.3751137,0.31460176,0.0017412076,0.13076395,0.0059304001,0.049193058,-1.7473085,-0.45793886,24.239675,3.8155934,-24.050751,12.174921,0.00056490569,-847.55568,-0.75769718,1.9519915,1118.5942,10.689534,1603.3196,5.1033744e-11,-71.886216,-0.69029375,24.861244,104.13859,5.3413017,61.211522,4.8016417e-05,5.8271809,0.073479195,24.239675,79.303821,-24.050751,48.69013,0.60105174,265.90079,0.28108473,24.861244,945.98093,5.3413017,906.77106,0.14735189,-407.15098,-0.36398452,24.239675,1118.5942,-24.050751,1603.3196,0.0073788027,-338.04274,-0.35734625,0.31460176,945.98093,0.13076395,906.77106,0.061919994,-514.25552,-0.45973376,18.346153,1118.5942,-55.912101,1603.3196,0.00053383212,-508.06657,-0.45420097,0.0019946932,1118.5942,0.0046793356,1603.3196,0.00063491741,660.00512,0.59003088,3.8155934,1118.5942,12.174921,1603.3196,3.3260508e-06,11698.339,289328.63,1.2051087,48.69013,2,6
0.5244512,0.024675969,1.5601692,21.253519,11.472227,16.351213,0.90276345,-2.4846806,-0.10566359,1.943754,23.515013,10.677634,-19.783708,0.45144305,-0.080955087,-0.16495488,1.5601692,0.49077109,11.472227,0.4339668,0.41094752,-1.2742575,-0.044299339,1.943754,28.764707,10.677634,-25.380325,0.75278555,-0.00055798011,-0.35243938,21.253519,0.0015831946,16.351213,0.0058630428,0.071383567,0.0007840371,0.49522473,0.49077109,0.0015831946,0.4339668,0.0058630428,0.0086283568,-0.75551873,-0.21408165,23.515013,3.5291148,-19.783708,12.319418,0.12373569,-330.761,-0.43490877,1.943754,760.52962,10.677634,1260.9285,0.0011366878,39.342107,0.29989532,21.253519,131.18613,16.351213,70.986464,0.12856299,7.3573112,0.074947068,23.515013,98.166765,-19.783708,56.999378,0.59378199,173.83614,0.32194427,21.253519,539.95723,16.351213,755.9345,0.10149455,-302.01402,-0.39711014,23.515013,760.52962,-19.783708,1260.9285,0.0032381086,-25.81053,-0.047801063,0.49077109,539.95723,0.4339668,755.9345,0.81284019,-419.14944,-0.55112835,28.764707,760.52962,-25.380325,1260.9285,1.8978514e-05,-513.05674,-0.67460455,0.0019283104,760.52962,0.0047869363,1260.9285,3.0472152e-08,425.07903,0.55892502,3.5291148,760.52962,12.319418,1260.9285,1.3622831e-05,11967.341,289440.72,1.2045852,56.999378,2,7
13.109166,0.40526291,1.8811087,32.347313,11.083222,45.668291,0.026303314,-5.5553413,-0.23187834,1.9488838,23.958,10.651889,21.721372,0.094780301,0.12279893,0.44271036,1.8811087,0.27737983,11.083222,0.61515335,0.014289643,-38.097541,-0.55318658,1.9488838,68.869242,10.651889,157.35091,1.7402015e-05,-0.00063335107,-0.40560655,32.347313,0.0015614912,45.668291,0.0063263743,0.026164039,-0.00021776195,-0.13945768,0.27737983,0.0015614912,0.61515335,0.0063263743,0.46234704,-0.97701526,-0.26284632,23.958,3.717059,21.721372,14.295169,0.057235856,-640.55267,-0.47772458,1.0111456,1340.8409,11.597753,1941.5933,0.0018244379,8.940608,0.049207884,32.347313,181.69056,45.668291,117.39979,0.79623208,34.437234,0.23982077,23.958,143.59571,21.721372,95.079258,0.083696364,221.82861,0.18431987,33.302883,1203.4981,50.462231,1409.4339,0.37777216,-542.25713,-0.40441571,24.20811,1340.8409,16.992407,1941.5933,0.0096462371,-164.93207,-0.1370439,0.26841431,1203.4981,0.67146379,1409.4339,0.51360676,392.21817,0.29251656,59.804733,1340.8409,133.90686,1941.5933,0.067001082,-860.286,-0.64160184,0.0020508916,1340.8409,0.005249429,1941.5933,8.1392108e-06,711.78686,0.53085109,3.7472178,1340.8409,13.470359,1941.5933,0.00042508324,13123.572,290504.05,1.1992835,107.97379,2,8
24.220599,0.55776452,1.8684017,43.424417,10.997926,84.242288,0.0011137344,-7.6171234,-0.2772248,1.9680335,27.476342,10.581743,79.014975,0.044464908,0.10356476,0.68943869,1.8684017,0.15021605,10.997926,0.49049832,1.7887667e-05,-35.245204,-0.39427607,1.9680335,89.392198,10.581743,331.29181,0.003485985,-0.00042919956,-0.28726797,43.424417,0.0014940739,84.242288,0.0063637825,0.11712699,-0.00018366173,-0.1229268,0.15021605,0.0014940739,0.49049832,0.0063637825,0.5100196,-0.60846844,-0.14282879,27.476342,4.2601246,79.014975,17.352176,0.30760641,-690.22799,-0.33994566,0.96234909,2030.4068,11.633361,2715.0342,0.045710486,22.791101,0.11405094,43.424417,199.83265,84.242288,266.48512,0.54125766,44.081683,0.24805205,27.476342,177.71142,79.014975,251.38631,0.073310941,419.5085,0.29949755,41.197724,1400.7076,95.244278,1915.9533,0.15508819,-139.64329,-0.068776014,28.115756,2030.4068,73.396378,2715.0342,0.69463499,204.80923,0.1462184,0.10434757,1400.7076,0.54089468,1915.9533,0.49539101,1213.474,0.59765066,99.683726,2030.4068,305.97687,2715.0342,0.00015005053,-1455.9944,-0.71709492,0.0019108926,2030.4068,0.0056904964,2715.0342,1.255849e-06,1442.3021,0.71035126,4.4132664,2030.4068,16.226808,2715.0342,1.750824e-06,14226.241,293303.77,1.1808649,256.09339,2,9
46.114095,0.72190303,1.9074839,63.878517,10.979564,120.54181,6.7051661e-06,-7.9126713,-0.22024603,1.9895509,35.92651,10.522888,112.75601,0.11303232,0.119885,0.80241192,1.9074839,0.14940581,10.979564,0.48660962,9.6605901e-08,-35.358277,-0.33155575,1.9895509,106.64353,10.522888,427.12389,0.015298223,-0.00027968033,-0.17351524,63.878517,0.0016118488,120.54181,0.0062655616,0.35915237,-0.00013255335,-0.082236841,0.14940581,0.0016118488,0.48660962,0.0062655616,0.66572445,-0.18129288,-0.037865623,35.92651,4.7877962,112.75601,19.501145,0.78778417,-769.41125,-0.31747059,0.92255841,2423.567,11.568532,3022.4576,0.076633969,-1.682863,-0.009016305,63.878517,186.64663,120.54181,458.35658,0.96228467,50.381417,0.29928691,35.92651,168.33819,112.75601,469.01957,0.029476294,270.88766,0.18570737,57.949085,1458.6802,134.80688,1995.5497,0.40799116,-42.985183,-0.017736329,39.287679,2423.567,105.97059,3022.4576,0.92324464,161.75778,0.11089325,0.093933871,1458.6802,0.54309385,1995.5497,0.62321852,1277.6068,0.52715966,123.86747,2423.567,391.09714,3022.4576,0.0019345425,-1841.6943,-0.75991061,0.0020290111,2423.567,0.0056796396,3022.4576,4.5446787e-07,1787.966,0.7377415,4.9200039,2423.567,17.835835,3022.4576,1.4515656e-06,14199.099,294967.61,1.1588012,479.39848,2,10
26.237016,0.49154177,1.942348,53.37698,10.9545,119.42631,0.005804905,-16.342207,-0.4092433,2.022897,39.932742,10.487244,133.22912,0.0023441671,0.088050598,0.71385048,1.942348,0.123346,10.9545,0.46145371,9.4576115e-06,-42.891833,-0.33161184,2.022897,129.34349,10.487244,454.5562,0.015279893,-0.00061259028,-0.37846511,53.37698,0.0016186176,119.42631,0.006586397,0.039181218,-0.00031812747,-0.1965427,0.123346,0.0016186176,0.46145371,0.006586397,0.29789272,1.324273,0.2541932,39.932742,5.2097105,133.22912,20.731014,0.066250488,-1242.8019,-0.60064396,1.0367215,2069.1158,11.513579,2431.6004,0.0004489748,-35.775603,-0.16777708,53.37698,213.23296,119.42631,586.02769,0.37550405,41.111584,0.19266861,39.932742,213.37977,133.22912,648.57581,0.16691291,680.13392,0.62688847,48.022907,1084.9361,129.90421,1702.886,0.0013689565,680.84203,0.32904975,43.692458,2069.1158,122.86884,2431.6004,0.07581263,234.00018,0.21568107,0.079936485,1084.9361,0.50468172,1702.886,0.32296448,1152.5147,0.55700829,156.454,2069.1158,408.72662,2431.6004,0.001387778,-1387.8463,-0.67074367,0.0020081094,2069.1158,0.006061813,2431.6004,4.9873889e-05,1530.6232,0.73974747,5.2571641,2069.1158,18.311316,2431.6004,2.9953329e-06,15154.533,295540.59,1.1445368,632.91124,2,11
33.358822,0.40556684,2.0222885,82.252342,10.76096,120.23797,0.017328375,-5.1142073,-0.11247278,2.0610555,45.470621,10.452424,150.64171,0.42264648,0.13086815,0.67135981,2.0222885,0.19492997,10.76096,0.4640084,1.3843134e-05,-33.611302,-0.27668104,2.0610555,121.48032,10.452424,445.29,0.044901299,-0.00048937018,-0.29836166,82.252342,0.0016401913,120.23797,0.0070435547,0.086539112,3.0384539e-05,0.018524997,0.19492997,0.0016401913,0.4640084,0.0070435547,0.91717984,0.29706766,0.0560478,45.470621,5.3002554,150.64171,21.252489,0.69017465,-1154.668,-0.51800683,1.6901153,2229.0594,11.003585,2911.965,0.0010238516,-19.476466,-0.06661096,82.252342,292.39131,120.23797,674.54669,0.70818601,12.279879,0.042428699,45.470621,289.42388,150.64171,768.23369,0.76291431,-135.16743,-0.079846456,77.912833,1692.842,116.02478,2148.3425,0.68053669,445.97805,0.20007455,49.469131,2229.0594,146.01157,2911.965,0.23511482,-987.81127,-0.58352242,0.19400368,1692.842,0.47694704,2148.3425,0.00089150521,1214.3463,0.54477967,139.55739,2229.0594,423.20006,2911.965,0.00048992696,-1098.0402,-0.49260246,0.0021425034,2229.0594,0.0063698888,2911.965,0.0019530724,1637.9861,0.73483284,5.3257561,2229.0594,19.704103,2911.965,2.2372381e-07,15924.722,297000.43,1.1329214,741.98427,2,12
36.940827,0.49922512,2.0777358,73.996331,10.505496,101.85407,0.0031003968,-7.7315229,-0.15218209,2.0891936,50.80442,10.41122,141.46208,0.28147483,0.11399049,0.51099851,2.0777358,0.22307402,10.505496,0.43852588,0.0023744159,-36.820452,-0.33080264,2.0891936,111.30641,10.41122,378.4012,0.016605419,-0.00066230275,-0.36342371,73.996331,0.0018223983,101.85407,0.0073698182,0.037627041,0.00011515663,0.063189608,0.22307402,0.0018223983,0.43852588,0.0073698182,0.72682691,-0.27754044,-0.052894839,50.80442,5.2470231,141.46208,21.03229,0.70958105,-1103.2278,-0.58178072,1.7215897,1896.2949,10.893508,2775.6482,5.3222355e-05,32.233891,0.13231278,73.996331,243.61888,101.85407,697.22826,0.46294376,-9.5226306,-0.036349859,50.80442,261.9716,141.46208,779.91581,0.79807814,-263.54679,-0.14706548,74.08145,1792.037,104.19171,2207.4023,0.44648456,374.95573,0.19773071,54.986986,1896.2949,139.84049,2775.6482,0.20940404,-977.04176,-0.54521294,0.22321195,1792.037,0.45432298,2207.4023,0.0022236733,1216.5915,0.64156242,118.77203,1896.2949,364.13773,2775.6482,4.6841749e-06,-831.0073,-0.43822684,0.0023718546,1896.2949,0.0064543965,2775.6482,0.0036993583,1321.2131,0.69673397,5.3964017,1896.2949,20.103848,2775.6482,2.975148e-07,16135.991,297450.8,1.130036,761.30887,2,13
32.913833,0.63274826,2.2502961,52.017264,10.43762,94.467497,3.4611717e-05,-4.9061657,-0.10883126,2.0817254,45.080481,10.431908,120.98427,0.43791485,0.099368634,0.6069831,2.2502961,0.16370906,10.43762,0.42623685,8.6748598e-05,-25.816977,-0.28697918,2.0817254,89.961149,10.431908,277.76851,0.037208579,-0.00032033545,-0.17871713,52.017264,0.0017924161,94.467497,0.0074108227,0.29700159,-9.3739832e-05,-0.052298032,0.16370906,0.0017924161,0.42623685,0.0074108227,0.76194976,0.083835375,0.01574789,45.080481,5.3235942,120.98427,20.948867,0.91088725,-1211.9566,-0.66066975,1.7892836,1834.4363,10.881173,2687.4463,7.8608182e-07,-15.383627,-0.073478982,52.017264,209.36092,94.467497,631.62421,0.6701871,-41.745104,-0.17333329,45.080481,240.83719,120.98427,703.4827,0.21452592,-547.79887,-0.29344725,51.824732,1866.7712,100.73689,2161.8036,0.10308919,210.10027,0.11453124,47.892085,1834.4363,119.01797,2687.4463,0.45376728,-921.99753,-0.49389959,0.15611157,1866.7712,0.45130123,2161.8036,0.0040672806,966.78541,0.52702043,94.089127,1834.4363,267.84168,2687.4463,0.00019966751,-722.37542,-0.39378605,0.0023197275,1834.4363,0.0065143782,2687.4463,0.0074428312,1313.114,0.71581337,5.5177775,1834.4363,20.328681,2687.4463,3.2561414e-08,16285.946,297701.92,1.1346371,691.24431,2,14
24.43427,0.68547296,2.2108268,35.645856,10.461987,72.695376,3.9695916e-06,-3.6308537,-0.092056575,2.0640518,39.441547,10.462214,80.314066,0.51208436,0.10817522,0.52733474,2.2108268,0.20513578,10.461987,0.46828499,0.00095060143,-15.047402,-0.26705491,2.0640518,56.345722,10.462214,150.32202,0.053224109,-0.00027738746,-0.15165844,35.645856,0.0018290275,72.695376,0.0074745458,0.37725798,-1.5888236e-05,-0.0086867126,0.20513578,0.0018290275,0.46828499,0.0074745458,0.95989788,-0.61540467,-0.11789768,39.441547,5.2198199,80.314066,20.343504,0.40047151,-1276.939,-0.65896537,1.6870819,1937.7938,10.995098,2593.3421,1.1538797e-06,1.4388233,0.0077962391,35.645856,184.55351,72.695376,553.1535,0.96400592,-37.166126,-0.17970789,39.441547,206.8141,80.314066,594.77989,0.19788227,-809.35683,-0.42264377,35.750067,1914.9858,76.41129,2146.5976,0.015958678,17.271664,0.0089130557,41.872256,1937.7938,78.302354,2593.3421,0.95420938,-990.82076,-0.5174037,0.2064016,1914.9858,0.49002217,2146.5976,0.0024243989,872.80902,0.45041378,58.741018,1937.7938,143.67271,2593.3421,0.0021550381,-733.14199,-0.37833849,0.0023646379,1937.7938,0.0066446963,2593.3421,0.011332549,1317.8376,0.68007112,5.403007,1937.7938,19.611946,2593.3421,3.8225494e-07,16611.741,296976.47,1.1442633,583.62235,2,15
19.595408,0.50374285,2.1088145,38.899626,10.629135,47.774969,0.0017354352,-1.7180863,-0.053710352,2.0504369,31.987991,10.501132,28.840343,0.70248415,0.1256447,0.43745873,2.1088145,0.28721499,10.629135,0.53024532,0.007629086,-3.8617223,-0.14257527,2.0504369,27.0855,10.501132,16.745382,0.30847477,-0.00026600109,-0.16127326,38.899626,0.0016493812,47.774969,0.007534564,0.34739165,-0.000208944,-0.12668024,0.28721499,0.0016493812,0.53024532,0.007534564,0.46159029,-1.6859445,-0.34273026,31.987991,4.9191586,28.840343,19.227378,0.011997598,-712.70955,-0.36938857,1.8881753,1929.4304,10.809583,2406.0534,0.0097708835,33.895635,0.18594246,38.899626,182.29099,47.774969,437.40764,0.2775742,-38.702267,-0.20036071,31.987991,193.16295,28.840343,462.77499,0.15029251,-469.88902,-0.28067796,39.601971,1674.1215,49.178623,1886.9131,0.10785408,-572.84961,-0.29690089,33.534776,1929.4304,28.423934,2406.0534,0.0404396,-589.30782,-0.35201018,0.29355283,1674.1215,0.5385947,1886.9131,0.041186657,91.721453,0.047538098,28.207964,1929.4304,15.765215,2406.0534,0.74832149,-835.75623,-0.43316215,0.0023021495,1929.4304,0.0065046976,2406.0534,0.0021032082,1282.1476,0.6645213,4.9624346,1929.4304,18.786209,2406.0534,2.5992235e-07,16261.744,296128.93,1.1556597,461.74667,2,16
6.7239972,0.16638739,2.1184594,40.411699,10.572045,24.059846,0.33210891,-1.6501485,-0.086716934,2.0418699,19.029138,10.530922,-15.62372,0.5369578,0.13585663,0.26827246,2.1184594,0.50641288,10.572045,0.67621813,0.11365341,4.7985769,0.28141515,2.0418699,17.051594,10.530922,-70.380697,0.041217196,-0.00053078126,-0.30604307,40.411699,0.0017343352,24.059846,0.0073166181,0.06947958,-3.2340622e-05,-0.018647273,0.50641288,0.0017343352,0.67621813,0.0073166181,0.91403987,-1.9412101,-0.44189673,19.029138,4.3929044,-15.62372,16.950554,0.0009241302,-454.66474,-0.43840629,2.0418699,1037.0853,10.530922,1597.792,0.001025368,114.27594,0.54763809,40.411699,208.67054,24.059846,291.92404,0.00054623958,13.683037,0.074595533,19.029138,183.42971,-15.62372,281.3264,0.59551943,-60.828054,-0.062370424,40.411699,975.27081,24.059846,1267.3085,0.71782457,-504.7447,-0.48669543,19.029138,1037.0853,-15.62372,1597.792,0.00021961124,-347.48426,-0.35629515,0.50641288,975.27081,0.67621813,1267.3085,0.032934686,-605.27311,-0.58362902,17.051594,1037.0853,-70.380697,1597.792,4.499231e-06,-581.12275,-0.56034227,0.0022778433,1037.0853,0.0062287823,1597.792,1.2814488e-05,692.73471,0.66796306,4.3929044,1037.0853,16.950554,1597.792,4.6518546e-08,15571.956,294267.57,1.1740307,281.3264,2,17
2.4804488,0.071622691,2.0765379,34.632165,10.783292,-2.5613029,0.69204165,-0.91669061,-0.04703632,2.0481631,19.488995,10.565588,-25.660487,0.74055244,0.1124052,0.25000492,2.1093148,0.44961194,10.790756,0.29900577,0.16758547,5.1928209,0.27351754,2.0283757,18.98533,10.565189,-75.077838,0.047510111,-0.00026953043,-0.15267993,34.632165,0.0017653298,-2.5613029,0.0071727746,0.39629868,-0.00017889749,-0.099752619,0.44961194,0.0017934114,0.29900577,0.007168601,0.5869967,-2.0344458,-0.49761391,19.488995,4.0884021,-25.660487,15.499109,0.00017450029,-1418.1304,-0.81802643,2.0283757,1733.5997,10.565189,2060.8245,7.5737543e-14,-197.14479,-0.81854967,34.632165,240.84647,-2.5613029,165.14697,5.8874662e-09,38.151439,0.32470421,19.488995,117.49598,-25.660487,121.24359,0.018844863,206.79474,0.11330809,34.632165,1825.0659,-2.5613029,1635.8322,0.53011225,-218.32758,-0.12568354,19.488995,1737.1215,-25.660487,2090.2233,0.3746414,-587.28533,-0.31860393,0.44961194,1843.3085,0.29900577,1670.3243,0.075530194,-637.97851,-0.36800797,18.98533,1733.5997,-75.077838,2060.8245,0.0067057312,-415.38296,-0.23960719,0.0023163392,1733.5997,0.0059045297,2060.8245,0.083980462,853.50653,0.49233195,4.0635497,1733.5997,15.451755,2060.8245,0.00018067807,14761.324,292712.82,1.1892835,143.01749,2,18
3.1877392,0.15544881,2.0809248,20.506681,10.760097,3.9468508,0.38768579,-0.11910036,-0.0062976927,2.0467032,18.911744,10.586136,-24.975335,0.96501604,0.13136292,0.25735244,2.1137894,0.51043978,10.767423,0.43124916,0.15503629,4.7935347,0.24995769,2.0265555,19.177385,10.584974,-70.485438,0.073914561,-0.00041700985,-0.24010962,20.506681,0.0017367478,3.9468508,0.0071427856,0.17832598,-0.00022053559,-0.12521765,0.51043978,0.001761218,0.43124916,0.0071242499,0.49470076,-1.7620503,-0.46208975,18.911744,3.8132208,-24.975335,14.539137,0.00064114041,-1394.4673,-0.82378734,2.0265555,1692.7516,10.584974,1996.2603,6.3955663e-14,-127.83417,-0.53962989,20.506681,236.89231,3.9468508,136.39036,0.0011912281,5.5801996,0.048973199,18.911744,113.94395,-24.975335,83.976098,0.73289804,17.678682,0.0094621436,20.506681,1868.3591,3.9468508,1646.5051,0.95832067,-450.23024,-0.26597385,18.911744,1692.7613,-24.975335,2029.1214,0.059230267,-461.20939,-0.24496174,0.51043978,1882.7814,0.43124916,1687.9476,0.17660759,-783.89516,-0.4630893,19.177385,1692.7516,-70.485438,1996.2603,0.00054617623,-447.68462,-0.26447154,0.0024149691,1692.7516,0.0058095242,1996.2603,0.058137535,855.46895,0.50537182,3.7902759,1692.7516,14.493008,1996.2603,0.00013274816,14523.81,291707.7,1.1949576,105.70957,2,19
4.8920529,0.093328853,2.0910757,52.417369,10.63341,18.758279,0.58823554,-1.3510902,-0.049426106,1.998076,27.335558,10.57212,-28.596126,0.7252416,0.17757186,0.36649345,2.0910757,0.48451578,10.63341,0.30148972,0.027914442,5.5995573,0.27037984,1.998076,20.709966,10.57212,-68.523487,0.05021848,-8.2564014e-05,-0.04971013,52.417369,0.0016609092,18.758279,0.0069619514,0.77341362,0.0001624937,0.097834182,0.48451578,0.0016609092,0.30148972,0.0069619514,0.5702704,-1.3116304,-0.34288735,27.335558,3.8252518,-28.596126,14.249324,0.011955956,-1322.8581,-0.83077143,1.998076,1592.3249,10.57212,1932.8904,1.4001916e-14,78.432977,0.37750219,52.417369,207.76827,18.758279,105.3846,0.023220167,63.281106,0.36524537,27.335558,173.25642,-28.596126,85.940629,0.0071618206,-306.16002,-0.17916033,52.417369,1708.8605,18.758279,1570.4693,0.29578553,-274.28532,-0.17225462,27.335558,1592.3249,-28.596126,1932.8904,0.21743635,-638.12334,-0.37342037,0.48451578,1708.8605,0.30148972,1570.4693,0.024877877,-840.85805,-0.52806938,20.709966,1592.3249,-68.523487,1932.8904,4.8276263e-05,-477.1338,-0.299646,0.0023377806,1592.3249,0.0057173764,1932.8904,0.029272561,845.82127,0.53118635,3.8252518,1592.3249,14.249324,1932.8904,4.2720974e-05,14293.441,291434.83,1.1974963,85.940629,2,20
4.2791891,0.11461449,2.0888138,37.335499,10.628869,0.37385956,0.50565652,-3.8968659,-0.19024786,1.9917635,20.4831,10.573501,-26.591315,0.17241075,0.077238594,0.15881974,2.0888138,0.48632868,10.628869,0.35811085,0.35487276,4.5154796,0.20740883,1.9917635,21.770912,10.573501,-67.77599,0.13616849,-0.00027530017,-0.16105545,37.335499,0.0017093503,0.37385956,0.0068935418,0.34805189,0.00031835615,0.18624395,0.48632868,0.0017093503,0.35811085,0.0068935418,0.27678196,-1.5748326,-0.42082182,20.4831,3.7422788,-26.591315,14.009967,0.0017029383,-1268.4459,-0.81261547,1.9917635,1560.9423,10.573501,1895.386,1.4911634e-13,-122.01272,-0.65461022,37.335499,186.38988,0.37385956,91.86164,1.4833159e-05,17.377779,0.11181101,20.4831,155.421,-26.591315,77.975807,0.42539847,108.39162,0.065958056,37.335499,1643.3417,0.37385956,1510.3723,0.70231425,-242.48619,-0.15534603,20.4831,1560.9423,-26.591315,1895.386,0.26668543,-458.55356,-0.27903726,0.48632868,1643.3417,0.35811085,1510.3723,0.099341002,-698.62073,-0.44756345,21.770912,1560.9423,-67.77599,1895.386,0.0007787753,-532.2311,-0.34096782,0.0023526009,1560.9423,0.005658947,1895.386,0.012473417,807.71171,0.51745136,3.7422788,1560.9423,14.009967,1895.386,7.2567386e-05,14147.367,291175.58,1.1989038,77.975807,2,21
3.2749211,0.20748625,2.0535979,15.783798,10.698175,0.96978538,0.23169874,-2.2413097,-0.09424483,1.9855816,23.781779,10.563003,-23.368389,0.50206215,0.066845344,0.18287132,2.0535979,0.36553213,10.698175,0.26626403,0.2930338,3.2797876,0.18802058,1.9855816,17.443769,10.563003,-66.841347,0.17758421,-0.00050813941,-0.30741646,15.783798,0.001652935,0.96978538,0.0067721241,0.072425432,0.00065051772,0.39355312,0.36553213,0.001652935,0.26626403,0.0067721241,0.019334858,-0.24455835,-0.065547545,23.781779,3.731007,-23.368389,13.773443,0.64098892,-1297.0923,-0.82636619,1.9855816,1569.6338,10.563003,1904.4174,2.5485329e-14,-74.963377,-0.51495288,15.783798,145.57328,0.96978538,74.954492,0.0015491737,-14.261979,-0.11853696,23.781779,120.31672,-23.368389,65.364898,0.39790384,20.30502,0.012437439,15.783798,1632.5724,0.96978538,1465.5019,0.94346839,8.6233451,0.005493858,23.781779,1569.6338,-23.368389,1904.4174,0.96885655,-543.66095,-0.33300878,0.36553213,1632.5724,0.26626403,1465.5019,0.050611923,-740.06898,-0.4714915,17.443769,1569.6338,-66.841347,1904.4174,0.00036566398,-542.65235,-0.34571908,0.0022739892,1569.6338,0.0055278149,1904.4174,0.011226332,798.67285,0.50882751,3.731007,1569.6338,13.773443,1904.4174,0.00010005628,13819.537,290936.26,1.2004517,65.364898,2,22
2.1625666,0.095656775,1.960957,22.607563,10.793167,4.5553372,0.59047784,-2.9707568,-0.15911361,1.9768592,18.670665,10.544154,-21.660609,0.25511588,0.096148411,0.22804875,1.960957,0.42161341,10.793167,0.30201585,0.19457109,4.0202668,0.19993819,1.9768592,20.107548,10.544154,-65.237868,0.1511724,-0.00043271584,-0.27532977,22.607563,0.0015716275,4.5553372,0.0066818892,0.11502142,0.00029893077,0.19020459,0.42161341,0.0015716275,0.30201585,0.0066818892,0.28127313,-0.50673261,-0.14183063,18.670665,3.572801,-21.660609,13.448104,0.31103438,-1288.8384,-0.82295137,1.9768592,1566.1173,10.544154,1872.8629,4.0082315e-14,50.950698,0.4017852,22.607563,126.81079,4.5553372,69.927354,0.018503492,-16.170517,-0.15563947,18.670665,103.89728,-21.660609,60.675616,0.26577194,36.44593,0.023022846,22.607563,1583.0332,4.5553372,1364.2034,0.89716718,-70.120788,-0.044773651,18.670665,1566.1173,-21.660609,1872.8629,0.75022381,-303.15968,-0.19150557,0.42161341,1583.0332,0.30201585,1364.2034,0.27793371,-659.82533,-0.42131285,20.107548,1566.1173,-65.237868,1872.8629,0.0016795954,-566.74308,-0.3618778,0.0021850741,1566.1173,0.0054259052,1872.8629,0.0077541278,875.86126,0.5592565,3.572801,1566.1173,13.448104,1872.8629,1.3429651e-05,13564.763,290612.74,1.2014438,60.675616,2,23
19.263602,0.72100106,2.617779,26.717855,7.8458369,49.758397,5.6390392e-11,-7.9324044,-0.50547452,2.6131683,15.692986,7.8081151,43.39622,2.7843759e-05,0.05604333,0.39077469,2.617779,0.14341596,7.8458369,0.34388139,0.0018473893,0.68651522,0.023728064,2.6131683,28.932627,7.8081151,107.55668,0.85475219,-0.00030674056,-0.2162387,26.717855,0.0014185276,49.758397,0.0064229846,0.094168609,0.00033254313,0.23442839,0.14341596,0.0014185276,0.34388139,0.0064229846,0.068987965,-1.1654858,-0.3398379,15.692986,3.4295346,43.39622,15.516522,0.0068847308,-964.58157,-0.63281877,2.6131683,1524.2619,7.8081151,2827.7425,3.4228884e-08,-56.760622,-0.29358155,26.717855,193.33852,49.758397,330.00716,0.021654967,60.298516,0.31240371,15.692986,193.01473,43.39622,332.81178,0.013435135,-1045.1724,-0.68129696,26.717855,1534.0923,49.758397,2816.0226,1.5130987e-09,120.82311,0.079266632,15.692986,1524.2619,43.39622,2827.7425,0.54026726,-1004.844,-0.65500883,0.14341596,1534.0923,0.34388139,2816.0226,1.0217621e-08,-191.33264,-0.12552478,28.932627,1524.2619,107.55668,2827.7425,0.3309906,-96.19485,-0.063109133,0.0014960831,1524.2619,0.0063583478,2827.7425,0.62604917,-88.283121,-0.057918602,3.4295346,1524.2619,15.516522,2827.7425,0.65476957,15895.869,292832.11,1.1723417,332.81178,3,daily
3.108741,0.1940849,2.7138473,16.017429,8.5475495,6.3340939,0.18622667,-2.0564374,-0.099339573,2.6609018,20.70109,7.9156028,-20.068695,0.44237729,-0.017022575,-0.040250506,2.7138473,0.42291579,8.5475495,0.30995572,0.78591194,-3.1754732,-0.15109689,2.6609018,21.016139,7.9156028,-61.980335,0.24108845,-0.00037435822,-0.22378237,16.017429,0.0016728674,6.3340939,0.0062804295,0.12626305,0.00039343702,0.23518722,0.42291579,0.0016728674,0.30995572,0.0062804295,0.10758677,-0.92421915,-0.27875407,20.70109,3.315536,-20.068695,12.765974,0.028240406,-1264.2465,-0.66031154,2.6701298,1914.6212,8.0382606,2529.9745,1.2720092e-08,-17.321099,-0.1219925,16.017429,141.98495,6.3340939,87.139516,0.40880325,10.828558,0.056955304,20.70109,190.12378,-20.068695,113.94969,0.66015658,-369.28219,-0.24221241,16.017429,1524.6213,6.3340939,1935.5836,0.097183604,-163.73504,-0.08551824,20.120259,1914.6212,-20.006191,2529.9745,0.5195723,-429.12794,-0.28146527,0.42291579,1524.6213,0.30995572,1935.5836,0.052619973,-110.06923,-0.057488777,20.131133,1914.6212,-61.833897,2529.9745,0.66538562,102.44941,0.053508971,0.0016824382,1914.6212,0.0062077359,2529.9745,0.68731259,-185.5033,-0.096887727,3.3576738,1914.6212,12.680778,2529.9745,0.46538673,15519.34,289927.39,1.1969099,117.34257,3,0
0.88383979,0.069480508,2.7369652,12.720687,8.2917654,5.3776608,0.6245276,-0.32735036,-0.019198859,2.6644677,17.050511,7.9109386,-16.922692,0.88225669,-0.01147548,-0.028080419,2.7369652,0.40866483,8.2917654,0.23306217,0.8433523,-4.1632033,-0.20363266,2.6644677,20.444674,7.9109386,-61.217869,0.11240921,-0.00042628231,-0.24526443,12.720687,0.0017380519,5.3776608,0.0062595062,0.07968605,0.00073897634,0.42517506,0.40866483,0.0017380519,0.23306217,0.0062595062,0.0016779335,-0.76475024,-0.22936193,17.050511,3.334251,-16.922692,12.490178,0.072935681,-1225.4749,-0.60864276,2.6767304,2013.4551,7.9849698,2515.8105,2.4796579e-07,-2.0363079,-0.01317412,12.720687,154.5688,5.3776608,92.601229,0.92614623,2.1679246,0.011273616,17.050511,192.30073,-16.922692,113.17667,0.93069954,-209.81605,-0.10580285,12.845537,1983.085,5.3487343,2266.4157,0.45994983,72.136222,0.035827082,17.242212,2013.4551,-17.153673,2515.8105,0.78580287,-262.74526,-0.13249319,0.38894865,1983.085,0.21410261,2266.4157,0.35401567,197.28902,0.09798531,20.598527,2013.4551,-61.59134,2515.8105,0.45638064,-42.083488,-0.02090113,0.0018408941,2013.4551,0.005949389,2515.8105,0.87405415,-93.613373,-0.046493896,3.350001,2013.4551,12.554798,2515.8105,0.72427203,14873.472,289824.16,1.1984151,98.292098,3,1
7.2886222,0.39523463,2.7251467,18.441254,8.4125275,10.349697,0.0045013458,-6.2216446,-0.34832293,2.5885179,17.861714,7.8166596,-19.164272,0.0059425834,-0.067604268,-0.16912903,2.6603478,0.39972006,8.3131885,0.18739837,0.24534406,-4.2423369,-0.21335944,2.6593284,19.883521,7.9047802,-62.127273,0.095905286,-0.0008630739,-0.49640934,18.441254,0.0017386335,10.349697,0.006160498,0.00024593243,0.00068496681,0.41390078,0.39972006,0.0016549058,0.18739837,0.0062429632,0.0031131026,-0.91651853,-0.26875844,17.861714,3.4101944,-19.164272,12.318866,0.036229027,-1261.7505,-0.66876937,2.6593284,1886.6752,7.9047802,2621.2927,2.8399287e-09,-16.414385,-0.083361207,18.441254,196.90676,10.349697,107.57947,0.56492138,-3.648517,-0.017360764,17.861714,210.15878,-19.164272,112.53785,0.89435412,-240.31909,-0.14292801,18.441254,1681.3995,10.349697,2138.1575,0.32208273,316.42533,0.16643199,17.861714,1901.229,-19.164272,2629.4528,0.19986156,-260.19687,-0.15316308,0.39972006,1698.8224,0.18739837,2138.4561,0.2934061,129.68773,0.06873877,19.883521,1886.6752,-62.127273,2621.2927,0.59551356,-86.713348,-0.045960932,0.0018445873,1886.6752,0.0058373392,2621.2927,0.72279987,-236.50036,-0.12535299,3.3855571,1886.6752,12.338217,2621.2927,0.33165812,14593.348,289641.93,1.1973008,111.40097,3,2
4.5747899,0.37941921,2.7116874,12.057349,8.4732684,5.558384,0.0071725512,-4.825766,-0.26680438,2.6546588,18.087282,7.9037928,-17.769456,0.036061919,-0.05298151,-0.17662245,2.7116874,0.29997042,8.4732684,0.13635738,0.22474316,-2.9212118,-0.15347392,2.6546588,19.033929,7.9037928,-63.6104,0.23368003,-0.00068201757,-0.38820997,12.057349,0.0017568265,5.558384,0.0059440494,0.0058453428,0.00064028219,0.36445385,0.29997042,0.0017568265,0.13635738,0.0059440494,0.010037448,-0.61807421,-0.17939914,18.087282,3.4452463,-17.769456,12.26593,0.16295832,-1176.4813,-0.64991504,2.6562156,1810.2079,7.9454123,2581.2377,1.4480798e-08,-4.8804525,-0.023670842,12.057349,206.17993,5.558384,107.5802,0.87174612,-5.5812922,-0.025979415,18.087282,214.83518,-17.769456,105.91296,0.84114207,-59.219402,-0.034256504,12.057349,1728.7054,5.558384,2147.2997,0.81523834,250.35875,0.13830387,18.210962,1810.2079,-17.645846,2581.2377,0.28780032,-140.20536,-0.081104255,0.29997042,1728.7054,0.13635738,2147.2997,0.57958728,-2.5035662,-0.0013830269,19.157047,1810.2079,-63.464805,2581.2377,0.99155988,-119.77564,-0.066166788,0.001849346,1810.2079,0.0056422457,2581.2377,0.61240471,-226.36435,-0.12504882,3.4388741,1810.2079,12.327853,2581.2377,0.33693772,14105.614,289645.84,1.1987436,92.189333,3,3
5.4808848,0.35336326,2.7191462,15.510624,8.6265215,12.490829,0.015998325,-6.2256819,-0.27648879,2.6499459,22.516941,7.8996773,-23.32438,0.029602457,-0.024676146,-0.065384408,2.7191462,0.37740107,8.6265215,0.17018961,0.66594718,-1.8299909,-0.10178703,2.6499459,17.978626,7.8996773,-64.733388,0.43115965,-0.00086722066,-0.51240372,15.510624,0.0016924558,12.490829,0.0057198639,0.00027208445,0.00047054174,0.27802305,0.37740107,0.0016924558,0.17018961,0.0057198639,0.061369772,-0.61521115,-0.18574469,22.516941,3.3121332,-23.32438,11.935805,0.14834487,-1181.352,-0.66234937,2.6764937,1783.5783,8.0023727,2495.7891,1.1065008e-08,-24.807408,-0.11734931,15.510624,211.398,12.490829,110.81722,0.4373433,4.9128167,0.02243135,22.516941,219.01565,-23.32438,108.88215,0.86261066,-268.67428,-0.17114214,15.510624,1569.8896,12.490829,1963.344,0.25544938,132.98108,0.074558586,22.328852,1783.5783,-23.775981,2495.7891,0.57464484,-392.17286,-0.2498092,0.37740107,1569.8896,0.17018961,1963.344,0.09406705,-204.79428,-0.11482214,17.684624,1783.5783,-65.562161,2495.7891,0.38650989,-133.2178,-0.074691311,0.0017673802,1783.5783,0.0054405512,2495.7891,0.57396214,-208.53842,-0.11692137,3.2235777,1783.5783,12.115838,2495.7891,0.37782839,13601.378,289421.53,1.1980161,108.26069,3,4
5.0363219,0.34914236,2.7261641,14.424838,8.6094595,10.053602,0.017397043,-8.0427221,-0.31548176,2.6504309,25.493461,7.8875829,-19.353982,0.012500361,-0.08050812,-0.22210905,2.7261641,0.36247113,8.6094595,0.15786541,0.13792541,-3.4141899,-0.1758446,2.6504309,19.415949,7.8875829,-63.050607,0.17159298,-0.00056898494,-0.33013282,14.424838,0.0017235031,10.053602,0.0057331742,0.02504667,0.00053928889,0.31290277,0.36247113,0.0017235031,0.15786541,0.0057331742,0.034234952,-0.129653,-0.04004102,25.493461,3.2380045,-19.353982,12.055381,0.75732843,-1264.5952,-0.65892705,2.6504309,1919.1732,7.8875829,2672.8898,5.8042812e-09,17.483282,0.092807876,14.424838,188.38145,10.053602,112.14983,0.53957418,-25.619088,-0.12639037,25.493461,202.6981,-19.353982,108.12304,0.32764017,-606.12233,-0.29880409,14.424838,2028.4941,10.053602,2232.2463,0.043678958,621.88955,0.32404034,25.493461,1919.1732,-19.353982,2672.8898,0.010190343,326.58145,0.16099699,0.36247113,2028.4941,0.15786541,2232.2463,0.28512557,257.35643,0.13409755,19.415949,1919.1732,-63.050607,2672.8898,0.29875869,231.90399,0.12083536,0.0017730494,1919.1732,0.0053802982,2672.8898,0.34951552,-171.1449,-0.089176369,3.2380045,1919.1732,12.055381,2672.8898,0.49065929,13450.745,289344.21,1.1983312,108.12304,3,5
8.7194747,0.44040354,2.7195628,19.79883,8.4901975,13.985227,0.0017327715,-11.947213,-0.4265462,2.6508901,28.009188,7.877169,-11.484535,0.00054618415,0.090377901,0.17584792,2.7195628,0.5139549,8.4901975,0.34004979,0.23187652,-4.2441898,-0.18309877,2.6508901,23.179784,7.877169,-44.321332,0.15431494,-0.00088246671,-0.52937301,19.79883,0.0016670036,13.985227,0.0057787702,0.00010939399,3.735769e-05,0.022410084,0.5139549,0.0016670036,0.34004979,0.0057787702,0.87982752,-0.080625409,-0.024895072,28.009188,3.2386092,-11.484535,12.169331,0.84769174,-374.29965,-0.44524982,2.6508901,840.65088,7.877169,1624.8424,0.00028762192,-12.338346,-0.081070331,19.79883,152.19311,13.985227,99.436885,0.58385038,13.860456,0.080894481,28.009188,171.33995,-11.484535,96.690556,0.53195362,-31.705561,-0.039101375,19.79883,810.85539,13.985227,1432.0049,0.79188607,152.11967,0.18095463,28.009188,840.65088,-11.484535,1624.8424,0.15928188,-267.16361,-0.32948367,0.5139549,810.85539,0.34004979,1432.0049,0.022206026,-226.56306,-0.26950909,23.179784,840.65088,-44.321332,1624.8424,0.03414989,-276.19087,-0.32854408,0.001732666,840.65088,0.0053803469,1624.8424,0.0091307791,175.34705,0.20858486,3.2386092,840.65088,12.169331,1624.8424,0.10375312,13450.867,289427,1.1994969,96.690556,3,6
5.8085323,0.19540855,2.727616,29.725067,8.2502617,37.603643,0.16505118,-9.633946,-0.37237971,2.660241,25.871297,7.8515098,13.549784,0.0028783417,0.078882224,0.21419657,2.727616,0.36827024,8.2502617,0.66641297,0.12730793,-18.903812,-0.30444463,2.660241,62.092775,7.8515098,94.534034,0.016135922,-0.00012158337,-0.081270154,29.725067,0.0014960397,37.603643,0.0061227188,0.56681401,-0.00018965995,-0.12677468,0.36827024,0.0014960397,0.66641297,0.0061227188,0.37047542,-0.93553182,-0.29383533,25.871297,3.1838643,13.549784,13.387777,0.020449191,-491.79694,-0.31728177,2.6835155,1550.0321,8.5111168,1981.3244,0.027994056,-16.571288,-0.075954987,29.725067,218.17248,37.603643,146.75732,0.59252621,62.530145,0.30601247,25.871297,204.33855,13.549784,133.96744,0.015569879,-462.06092,-0.28632469,31.271349,1613.7655,41.042482,2037.9804,0.062685756,-70.013198,-0.045168869,27.07579,1550.0321,10.41902,1981.3244,0.76048364,-210.22151,-0.13026769,0.37042805,1613.7655,0.71531823,2037.9804,0.40506624,164.08887,0.10586159,61.004576,1550.0321,81.049606,1981.3244,0.47392119,-55.672112,-0.035916748,0.001663486,1550.0321,0.0058350133,1981.3244,0.80850328,117.59055,0.075863296,3.2364528,1550.0321,13.362872,1981.3244,0.6083142,14587.533,290551.78,1.1948384,135.90056,3,7
23.738929,0.54642518,2.7357361,43.444061,8.1292845,72.180841,2.3088543e-05,-5.1218307,-0.19935635,2.659798,25.691836,7.8173991,68.307192,0.12032134,0.11113043,0.60469377,2.7357361,0.18377969,8.1292845,0.48009396,1.6238958e-06,6.9676834,0.077848407,2.659798,89.503224,7.8173991,285.05004,0.54756157,-0.0003161967,-0.24789697,43.444061,0.0012755166,72.180841,0.0064569347,0.073496675,-0.0002803026,-0.21975614,0.18377969,0.0012755166,0.48009396,0.0064569347,0.11385612,-0.47123499,-0.13024779,25.691836,3.6179883,68.307192,15.964276,0.31297129,-481.90301,-0.2422353,2.5817725,1989.4004,9.0739543,2919.5173,0.15461479,-69.017442,-0.27404936,43.444061,251.8431,72.180841,248.31486,0.047063096,45.267336,0.17474791,25.691836,259.04365,68.307192,255.13859,0.17432326,-757.981,-0.38759655,45.270711,1955.5927,84.754167,3001.6145,0.0214183,-261.90303,-0.13164923,28.599363,1989.4004,66.527255,2919.5173,0.44405791,-629.66234,-0.32198031,0.18046974,1955.5927,0.53334968,3001.6145,0.059259713,80.908706,0.040669895,95.452316,1989.4004,274.99021,2919.5173,0.81381695,-277.40911,-0.13944358,0.0014284488,1989.4004,0.0067454113,2919.5173,0.41730347,409.26918,0.20572489,3.573303,1989.4004,15.878771,2919.5173,0.22870007,16863.528,293085.41,1.1796674,256.2887,3,8
35.430153,0.54118768,2.7127471,65.467406,8.1170594,119.54858,2.8622629e-05,-13.792402,-0.35591932,2.6548154,38.751485,7.7604701,112.40726,0.0045242732,0.11999411,0.68273321,2.7127471,0.17575549,8.1170594,0.48786375,1.788751e-08,3.3804561,0.029067879,2.6548154,116.29524,7.7604701,426.55879,0.82254713,-0.00025647252,-0.18413009,65.467406,0.0013928876,119.54858,0.006379853,0.18688831,-0.00020261503,-0.14546402,0.17575549,0.0013928876,0.48786375,0.006379853,0.29867332,-1.044441,-0.23942602,38.751485,4.3622703,112.40726,18.186657,0.060897819,160.61258,0.07622054,2.5818523,2107.2086,9.1938959,3461.3736,0.65388497,-90.736604,-0.34549978,65.467406,262.6242,119.54858,431.80065,0.011281433,101.16548,0.37043936,38.751485,273.09594,112.40726,448.93553,0.0030396423,-240.32624,-0.11404957,64.761179,2107.2086,143.05554,3461.3736,0.50150476,-226.25046,-0.10736975,38.699133,2107.2086,104.60293,3461.3736,0.52704639,-184.03301,-0.087334978,0.16247262,2107.2086,0.5554869,3461.3736,0.60726008,658.55009,0.3125225,117.52849,2107.2086,431.43844,3461.3736,0.059669013,-707.29086,-0.33565299,0.0016014731,2107.2086,0.0064614347,3461.3736,0.042258387,1015.8677,0.48209167,4.3283898,2107.2086,18.597862,3461.3736,0.0025156031,16153.587,295855.45,1.1627338,391.8432,3,9
44.162206,0.59584736,2.7168917,74.116644,8.0832834,139.30958,2.5133651e-06,-12.89208,-0.27780138,2.6474283,46.407544,7.7407906,144.30827,0.028806681,0.11445275,0.70258795,2.7168917,0.16290167,8.0832834,0.46674622,4.5207984e-09,17.041745,0.12441161,2.6474283,136.97873,7.7407906,494.18515,0.33533097,-0.00046710039,-0.32340649,74.116644,0.0014443136,139.30958,0.0064424499,0.018168839,-0.00035004544,-0.24236111,0.16290167,0.0014443136,0.46674622,0.0064424499,0.080374853,0.16636869,0.03384736,46.407544,4.9152634,144.30827,19.716361,0.79396499,-166.26443,-0.091788551,2.6353468,1811.3852,9.1061297,3209.8823,0.58898494,-40.257401,-0.16157064,74.116644,249.16284,139.30958,602.77288,0.24775592,86.999752,0.29429995,46.407544,295.61593,144.30827,635.68082,0.020241612,-306.17174,-0.1690263,73.787005,1811.3852,162.82353,3209.8823,0.31727292,-14.657293,-0.0080917592,46.93749,1811.3852,140.91373,3209.8823,0.96208955,-421.65413,-0.23277993,0.16027862,1811.3852,0.51799685,3209.8823,0.16560096,543.3311,0.29995337,132.0542,1811.3852,503.8203,3209.8823,0.071276796,-406.20417,-0.22425057,0.0016841125,1811.3852,0.0065527716,3209.8823,0.18210163,764.59187,0.4221034,4.7670312,1811.3852,20.239922,3209.8823,0.0092598155,16381.929,297533.48,1.1449315,571.60816,3,10
53.490038,0.70660772,2.7059828,75.699764,8.0036009,145.18707,2.3663565e-09,-17.689613,-0.34476237,2.6390143,51.309581,7.7103137,174.40274,0.0060677813,0.12412455,0.78081698,2.7059828,0.15896754,8.0036009,0.42817326,3.3217885e-12,10.386003,0.076930622,2.6390143,135.0048,7.7103137,529.51155,0.55230715,-0.00065552864,-0.40908891,75.699764,0.0016024112,145.18707,0.0069123402,0.0021301316,-0.00060094257,-0.37502396,0.15896754,0.0016024112,0.42817326,0.0069123402,0.0052037866,-0.15625118,-0.031350255,51.309581,4.9840483,174.40274,20.437027,0.80886703,-742.69571,-0.38315087,2.674217,1938.3897,8.7096297,3088.8776,0.01226028,-37.614623,-0.1400015,75.699764,268.673,145.18707,733.48511,0.31263533,145.2166,0.44965084,51.309581,322.95415,174.40274,765.64484,0.00024599585,-894.63477,-0.46153504,75.625226,1938.3897,163.61289,3088.8776,0.0020940705,-67.477922,-0.034811329,43.777971,1938.3897,170.58892,3088.8776,0.8267583,-924.08556,-0.47672847,0.15558308,1938.3897,0.46832776,3088.8776,0.0014138101,568.02967,0.29304204,122.96468,1938.3897,543.59202,3088.8776,0.059646557,93.69601,0.048337034,0.0017608734,1938.3897,0.0070674451,3088.8776,0.76114026,587.70625,0.30319303,4.6669837,1938.3897,21.051999,3088.8776,0.050957964,17668.613,298400.12,1.1327844,700.73207,3,11
53.082834,0.63898453,2.6736736,83.07374,7.8670102,145.81583,8.8435547e-08,-13.828244,-0.24075867,2.6309822,57.436122,7.69209,187.42458,0.059431743,0.11259268,0.68060974,2.6736736,0.16542913,7.8670102,0.41215506,5.7231839e-09,9.3515985,0.069670208,2.6309822,134.22665,7.69209,515.98349,0.59052591,-0.00023182592,-0.14887631,83.07374,0.0015571713,145.81583,0.0072076035,0.26904561,-0.00016707721,-0.10729533,0.16542913,0.0015571713,0.41215506,0.0072076035,0.42695531,0.75536499,0.15519907,57.436122,4.8670718,187.42458,20.582353,0.22840284,-806.44496,-0.42859962,2.6675887,1881.5811,8.6239438,2978.4458,0.0041370871,-46.973822,-0.15399593,83.07374,305.03289,145.81583,800.0577,0.25273814,48.326954,0.13401072,57.436122,360.62006,187.42458,833.2996,0.29907455,-950.68307,-0.50525755,80.96667,1881.5811,169.98901,2978.4458,0.00054880795,217.90898,0.11581163,51.888749,1881.5811,187.43157,2978.4458,0.45957708,-1113.6707,-0.59188025,0.15514493,1881.5811,0.46072683,2978.4458,2.909802e-05,683.88833,0.36346471,122.04772,1881.5811,531.71562,2978.4458,0.01658684,-1.9843739,-0.0010546311,0.0016638104,1881.5811,0.0074260537,2978.4458,0.99464473,432.21362,0.22970767,4.4221473,1881.5811,21.060019,2978.4458,0.13839251,18565.134,298436.29,1.1296744,735.79166,3,12
56.667953,0.65353227,2.6653103,86.71026,7.8595565,147.77892,3.563656e-08,-12.461548,-0.21159802,2.6253211,58.892556,7.6817697,190.13075,0.098744717,0.11356855,0.64181721,2.6653103,0.17694844,7.8595565,0.41562901,7.4369804e-08,12.958254,0.1171534,2.6253211,110.60928,7.6817697,460.38616,0.36450108,-0.00010893502,-0.069599319,86.71026,0.0015651737,147.77892,0.007328168,0.60693988,-0.00019447353,-0.12425044,0.17694844,0.0015651737,0.41562901,0.007328168,0.35712202,0.25666438,0.055990627,58.892556,4.5840597,190.13075,20.550689,0.66556856,-1396.1384,-0.55454422,2.6743984,2517.6322,8.2525453,3562.3226,3.5571012e-05,-64.531265,-0.24009266,86.71026,268.7765,147.77892,771.33177,0.072032198,61.284966,0.1850559,58.892556,331.17002,190.13075,809.36345,0.14988219,-1451.2276,-0.61477403,85.053774,2360.587,163.81698,3428.1439,3.3395016e-06,55.280602,0.021957378,53.02189,2517.6322,187.91786,3562.3226,0.88096046,-1416.0373,-0.5998666,0.16947539,2360.587,0.44288505,3428.1439,6.6056141e-06,-25.862515,-0.010272555,104.67505,2517.6322,469.10547,3562.3226,0.94415119,25.326677,0.010059721,0.0016020254,2517.6322,0.0075175974,3562.3226,0.94530653,25.627816,0.010179333,4.2339704,2517.6322,20.736054,3562.3226,0.94465722,18793.993,298155.08,1.1304418,725.70726,3,13
54.310037,0.76787447,2.6182965,70.727755,7.8207438,125.584,1.2802386e-12,-15.714133,-0.34550878,2.6022865,45.48114,7.7083691,173.59816,0.0059516912,0.127153,0.7660342,2.6182965,0.16598867,7.8207438,0.40028116,1.5600026e-12,7.9338218,0.10288182,2.6022865,77.115878,7.7083691,363.58564,0.42619433,-0.0003526911,-0.20481429,70.727755,0.0017220043,125.584,0.0073598561,0.11968555,-0.00025281256,-0.14681296,0.16598867,0.0017220043,0.40028116,0.0073598561,0.26717621,-0.88086007,-0.204784,45.48114,4.3014107,173.59816,20.270119,0.11034885,-1093.7842,-0.5538714,2.6421631,1974.7982,8.2824263,3164.1657,3.6521672e-05,-58.258226,-0.21413564,70.727755,272.06226,125.584,717.30514,0.10340477,90.408568,0.29694955,45.48114,304.45766,173.59816,741.03166,0.019091768,-1067.8899,-0.54075902,69.500924,1974.7982,139.1527,3164.1657,6.0386493e-05,131.69086,0.066685731,43.458037,1974.7982,166.86809,3164.1657,0.64892443,-1151.9293,-0.58331497,0.15601823,1974.7982,0.43474827,3164.1657,1.0894224e-05,61.361294,0.031072185,84.357398,1974.7982,362.60284,3164.1657,0.83215272,-87.720429,-0.044419946,0.0017504651,1974.7982,0.0076228885,3164.1657,0.76184242,272.35237,0.13791403,4.0012396,1974.7982,20.516281,3164.1657,0.3446577,19057.221,297954.11,1.1344429,675.31372,3,14
45.733192,0.74805193,2.5922184,61.136386,7.8298267,102.04521,6.4712873e-12,-12.226492,-0.28732147,2.5817146,42.553354,7.7561226,134.64605,0.023555344,0.13247712,0.77039065,2.5922184,0.17196096,7.8298267,0.40841083,6.1590939e-13,5.471477,0.1058776,2.5817146,51.677378,7.7561226,220.39736,0.41277468,-0.00043831169,-0.25711947,61.136386,0.0017047005,102.04521,0.0073326261,0.047342481,-0.00046466985,-0.27258151,0.17196096,0.0017047005,0.40841083,0.0073326261,0.03511139,-0.89641569,-0.21774519,42.553354,4.1168106,134.64605,19.62326,0.089112034,-1016.3628,-0.50963475,2.6244406,1994.2966,8.2692921,3139.3152,0.00015673147,-62.308604,-0.23314335,61.136386,267.25448,102.04521,649.82271,0.073016855,42.971231,0.15144223,42.553354,283.74668,134.64605,668.49179,0.24000225,-977.48887,-0.49014218,61.671361,1994.2966,112.2574,3139.3152,0.00030254415,-39.101422,-0.019606624,42.799535,1994.2966,131.41916,3139.3152,0.89249638,-960.67628,-0.48171185,0.16928513,1994.2966,0.43718414,3139.3152,0.00039730545,-323.9565,-0.16244149,53.944179,1994.2966,218.16651,3139.3152,0.25970526,-212.41331,-0.10651039,0.0017468842,1994.2966,0.0075755743,3139.3152,0.46161441,68.375039,0.034285291,3.8402461,1994.2966,19.673179,3139.3152,0.81314463,18938.936,297105.4,1.1409456,611.44169,3,15
30.24061,0.73845994,2.5900154,40.950914,7.8943364,62.964662,2.468098e-11,-12.03155,-0.32899923,2.5726307,36.570146,7.7847717,74.420876,0.0090292317,0.18217687,0.82995907,2.5900154,0.21950103,7.8943364,0.43031167,4.4681584e-16,-0.31430871,-0.011202716,2.5726307,28.056474,7.7847717,69.468764,0.93113431,-0.00040169688,-0.23997241,40.950914,0.0016739294,62.964662,0.0073425105,0.067148994,-0.00059076756,-0.35292262,0.21950103,0.0016739294,0.43031167,0.0073425105,0.0061126596,-1.2343397,-0.29689751,36.570146,4.1574607,74.420876,18.634304,0.019113807,-901.61521,-0.41017035,2.6119501,2198.1482,8.406476,2941.0328,0.0037863858,-82.920024,-0.32576833,40.950914,254.53679,62.964662,537.57533,0.011808016,71.598427,0.2748926,36.570146,260.45964,74.420876,551.27066,0.030594925,-1022.35,-0.46277103,41.684729,2209.1919,70.931231,2974.9345,0.0010555394,-308.39732,-0.14029869,35.136616,2198.1482,67.815624,2941.0328,0.34154798,-700.31278,-0.31699952,0.2135819,2209.1919,0.4808852,2974.9345,0.029927057,-413.38727,-0.1880616,29.093584,2198.1482,68.269914,2941.0328,0.20053074,-101.41586,-0.046136952,0.0017745693,2198.1482,0.0074445777,2941.0328,0.755507,498.41915,0.22674501,4.158723,2198.1482,18.753765,2941.0328,0.12119216,18611.444,296175.58,1.1520671,492.26913,3,16
8.853841,0.47643916,2.600608,18.583361,7.9381249,24.284121,0.00015645732,-4.4918108,-0.24699314,2.5741952,18.185974,7.7942943,8.1188974,0.052947636,0.19656717,0.54826594,2.600608,0.35852523,7.9381249,0.65808724,8.3814454e-06,-3.6000127,-0.18516311,2.5741952,19.442387,7.7942943,-51.562064,0.14964213,-0.0003952892,-0.24446067,18.583361,0.0016169848,24.284121,0.0074573922,0.064400334,-0.00030197158,-0.1867498,0.35852523,0.0016169848,0.65808724,0.0074573922,0.16041814,-1.3279596,-0.33588836,18.185974,3.9535744,8.1188974,16.883921,0.0076079852,-194.96046,-0.22117776,2.5741952,881.46505,7.7942943,1693.6326,0.084063559,-43.803459,-0.1855595,18.583361,236.06153,24.284121,394.42543,0.16314836,60.016805,0.25136018,18.185974,238.76815,8.1188974,410.79591,0.048758367,-92.15431,-0.11084773,18.583361,831.35945,24.284121,1620.8353,0.40746022,-272.7344,-0.30941034,18.185974,881.46505,8.1188974,1693.6326,0.014401319,-58.99984,-0.070967907,0.35852523,831.35945,0.65808724,1620.8353,0.59654308,-231.39259,-0.2625091,19.442387,881.46505,-51.562064,1693.6326,0.039280657,-189.75929,-0.21527716,0.0018515385,881.46505,0.0072645939,1693.6326,0.092886767,149.55533,0.16966677,3.9535744,881.46505,16.883921,1693.6326,0.18738621,18161.485,294285.66,1.162318,410.79591,3,17
4.3809553,0.31338341,2.6250129,13.979538,8.0625204,10.585808,0.019819127,-4.8287674,-0.2958792,2.574947,16.320064,7.8061068,-18.842412,0.019549386,-0.085048222,-0.17670394,2.6250129,0.48130349,8.0625204,0.31362597,0.19685828,-2.4133039,-0.11714299,2.574947,20.601352,7.8061068,-76.287902,0.36454402,-0.00051893134,-0.32675892,13.979538,0.0015881168,10.585808,0.0070911047,0.014896075,0.00055068707,0.34675476,0.48130349,0.0015881168,0.31362597,0.0070911047,0.0094991207,-1.4192609,-0.41303449,16.320064,3.4361802,-18.842412,14.810146,0.00084882746,-1458.1646,-0.6889832,2.5851741,2116.4008,7.8363708,2869.2774,8.3363426e-10,-62.046724,-0.26888773,13.979538,230.75327,10.585808,252.25089,0.047139323,66.367023,0.29215127,16.320064,227.16664,-18.842412,253.75805,0.021216821,-343.09043,-0.16407746,14.049075,2091.0272,10.761933,2626.6228,0.23579579,-41.483974,-0.01960119,16.160922,2116.4008,-19.232834,2869.2774,0.88081398,-240.3752,-0.11495556,0.48545756,2091.0272,0.31614227,2626.6228,0.4078232,-233.0587,-0.1101203,19.357531,2116.4008,-77.236963,2869.2774,0.39819584,-44.795287,-0.021165787,0.0018089345,2116.4008,0.006773312,2869.2774,0.8713781,-261.22492,-0.12342885,3.4592423,2116.4008,14.834623,2869.2774,0.34328362,16933.28,292176.93,1.179893,253.53671,3,18
5.9537985,0.236604,2.6034325,25.163558,8.0368202,10.364453,0.07914467,-6.4385202,-0.38844004,2.5629737,16.575326,7.8185795,-19.940573,0.0018095312,0.03908948,0.082681622,2.6034325,0.47277109,8.0368202,0.30125314,0.54463682,-2.0296488,-0.09921895,2.5629737,20.456261,7.8185795,-71.266131,0.44293432,-0.00034828093,-0.21442525,25.163558,0.0016242533,10.364453,0.0069515437,0.11252612,0.00028006807,0.17242881,0.47277109,0.0016242533,0.30125314,0.0069515437,0.20380721,-1.3834805,-0.42768808,16.575326,3.2347886,-19.940573,14.024468,0.00052576287,-1170.0118,-0.63934899,2.5642743,1830.0049,7.8589661,2489.7135,2.9244732e-08,6.9779994,0.032348239,25.163558,215.71497,10.364453,202.5266,0.81290958,62.700495,0.3013119,16.575326,208.09166,-19.940573,192.76966,0.017319899,219.27136,0.1224128,25.290166,1791.2453,10.67038,2274.3455,0.37328305,-61.858686,-0.03380247,16.519352,1830.0049,-20.259998,2489.7135,0.79593006,-290.67709,-0.16227654,0.46914753,1791.2453,0.28974623,2274.3455,0.2365327,-272.31892,-0.14880776,20.03659,1830.0049,-71.88277,2489.7135,0.25238815,-223.0309,-0.12187449,0.0018486825,1830.0049,0.0066783819,2489.7135,0.34944198,-218.27947,-0.11927808,3.2310874,1830.0049,14.080561,2489.7135,0.35988018,16695.955,291368.43,1.1879002,183.98259,3,19
3.9736746,0.19227344,2.586308,20.666789,8.0243427,6.6733396,0.15570212,-2.7147829,-0.1708861,2.550595,15.886505,7.8027934,-19.953316,0.18418905,0.039357555,0.093547291,2.586308,0.42072362,8.0243427,0.23367737,0.49286392,-1.9925436,-0.094783034,2.550595,21.022155,7.8027934,-68.291509,0.46368892,-0.00063269869,-0.393057,20.666789,0.0016096869,6.6733396,0.0068161931,0.0027296213,0.0002921685,0.18150642,0.42072362,0.0016096869,0.23367737,0.0068161931,0.18064048,-1.211011,-0.37791529,15.886505,3.2044508,-19.953316,13.646557,0.002459208,-1327.9859,-0.64834369,2.550595,2048.2746,7.8027934,2631.7659,1.2163155e-08,-36.046359,-0.18389981,20.666789,196.01085,6.6733396,165.28328,0.17486232,57.141292,0.30189936,15.886505,189.27265,-19.953316,157.98918,0.017092384,-109.05431,-0.058037623,20.666789,1879.0278,6.6733396,2362.2843,0.67092665,-89.175964,-0.043537112,15.886505,2048.2746,-19.953316,2631.7659,0.7368751,-521.75323,-0.2776719,0.42072362,1879.0278,0.23367737,2362.2843,0.038267484,-86.991659,-0.042470701,21.022155,2048.2746,-68.291509,2631.7659,0.74309548,-101.84014,-0.049719966,0.0018280578,2048.2746,0.0065825846,2631.7659,0.7011522,-254.59479,-0.12429719,3.2044508,2048.2746,13.646557,2631.7659,0.33577909,16456.461,290905.66,1.1913488,157.98918,3,20
3.890109,0.23939009,2.5845466,16.250084,8.012805,6.5041106,0.075574251,-4.1341781,-0.22475463,2.5438974,18.394185,7.7967271,-22.07932,0.079045764,-0.022452402,-0.057352336,2.5845466,0.39148191,8.012805,0.24638394,0.67459397,-2.5379821,-0.11173969,2.5438974,22.713346,7.7967271,-65.455244,0.38723322,-0.00065077271,-0.40761406,16.250084,0.0015965414,6.5041106,0.0067277431,0.0018199673,0.00065735477,0.41173676,0.39148191,0.0015965414,0.24638394,0.0067277431,0.0016172258,-0.9400971,-0.2808348,18.394185,3.3475093,-22.07932,13.434846,0.027036078,-1154.9982,-0.65705868,2.5665462,1757.8311,7.8985946,2391.6191,1.5855206e-08,-8.799612,-0.044979851,16.250084,195.63453,6.5041106,141.46112,0.74202472,37.639135,0.1999717,18.394185,188.22231,-22.07932,133.81637,0.11915733,-94.398874,-0.053721794,16.370154,1757.1802,6.6347469,2268.4154,0.69687529,-199.66436,-0.11358563,18.328461,1757.8311,-22.649292,2391.6191,0.39167852,-366.65231,-0.20865948,0.39363891,1757.1802,0.25086365,2268.4154,0.12631417,-505.295,-0.28745366,21.530418,1757.8311,-66.655266,2391.6191,0.027275531,-165.64795,-0.094234282,0.0017840771,1757.8311,0.0064426882,2391.6191,0.47775233,-111.01271,-0.063153226,3.3127823,1757.8311,13.55003,2391.6191,0.63465517,16106.72,290779.36,1.1941363,132.82942,3,21
2.8398711,0.17710695,2.5857942,16.034781,8.1399476,3.9464866,0.20455885,-0.18925828,-0.010085504,2.5398242,18.765377,7.7880197,-16.178366,0.93798783,-0.043933354,-0.10052597,2.5857942,0.43703488,8.1399476,0.30522546,0.47386386,-2.8220924,-0.12554148,2.5398242,22.479363,7.7880197,-63.365211,0.33092576,-0.00048773785,-0.29867756,16.034781,0.0016329913,3.9464866,0.0065629521,0.029824713,0.00035599747,0.21800329,0.43703488,0.0016329913,0.30522546,0.0065629521,0.11684133,0.034477834,0.010169122,18.765377,3.3904437,-16.178366,13.225741,0.93747472,-1065.0435,-0.64081313,2.5543985,1662.0188,7.898597,2373.893,4.5832899e-08,-3.7592295,-0.027020317,16.034781,139.12603,3.9464866,99.699172,0.84769892,13.166608,0.070685333,18.765377,186.27072,-16.178366,118.8583,0.58511158,-224.57928,-0.13985661,16.034781,1605.7824,3.9464866,2153.9542,0.31788543,-402.52468,-0.24219021,18.832162,1662.0188,-16.101156,2373.893,0.064585801,-336.49024,-0.20954909,0.43703488,1605.7824,0.30522546,2153.9542,0.13208291,-470.7935,-0.28326605,22.082307,1662.0188,-63.882446,2373.893,0.029705463,-121.64314,-0.07318999,0.0017467607,1662.0188,0.0063390443,2373.893,0.58170622,-112.32133,-0.067581263,3.4175451,1662.0188,13.228888,2373.893,0.61104886,15847.611,290467.22,1.1968977,105.82957,3,22
2.7101909,0.14575168,2.5870777,18.594577,8.2316802,4.2221469,0.30747563,-4.4300586,-0.24304006,2.5375742,18.227689,7.7850918,-15.393382,0.05698828,0.055532173,0.1454446,2.5870777,0.38180979,8.2316802,0.25128151,0.30850696,-2.5157644,-0.10863373,2.5375742,23.158227,7.7850918,-61.031432,0.40064702,-0.00027496809,-0.16141118,18.594577,0.0017035257,4.2221469,0.0064303222,0.25781588,0.00053874037,0.31625021,0.38180979,0.0017035257,0.25128151,0.0064303222,0.023767982,-0.58061249,-0.17524597,18.227689,3.313129,-15.393382,12.997212,0.17307942,-1152.8026,-0.62825741,2.5386837,1834.9208,7.8252572,2504.9546,5.9455389e-08,-52.91358,-0.37609997,18.594577,140.6902,4.2221469,91.501082,0.006528986,17.415014,0.092884811,18.227689,187.49043,-15.393382,118.53476,0.47272891,-214.1441,-0.12529757,18.594577,1709.0842,4.2221469,2133.1195,0.3809865,-125.13834,-0.068198225,18.200664,1834.9208,-15.715048,2504.9546,0.60150702,-606.77176,-0.35502742,0.38180979,1709.0842,0.25128151,2133.1195,0.010575417,-358.15648,-0.19518906,22.654347,1834.9208,-61.74419,2504.9546,0.13168809,-178.82559,-0.097456844,0.0018579636,1834.9208,0.0062088143,2504.9546,0.45494478,-222.3729,-0.12118937,3.3395307,1834.9208,13.007978,2504.9546,0.35217796,15522.036,290257.71,1.1960635,119.17256,3,23
4.0094858,0.20623896,0.48634059,19.440972,5.2610224,41.789349,0.12726198,-5.288124,-0.22762377,0.47710569,23.231862,5.2832911,70.265613,0.080270736,0.0014119704,0.013002828,0.48634059,0.10858949,5.2610224,0.30604788,0.9242246,2.269485,0.072060737,0.47710569,31.494057,5.2832911,132.14877,0.58427546,-0.00055792727,-0.36815754,19.440972,0.001515458,41.789349,0.006795512,0.0052434232,0.00034447682,0.22730873,0.10858949,0.001515458,0.30604788,0.006795512,0.092028903,-0.74837023,-0.24188087,23.231862,3.0939621,70.265613,16.704478,0.062611415,-3.249309,-0.0022489412,0.47710569,1444.8172,5.2832911,2766.9953,0.98639371,-41.185102,-0.29277602,19.440972,140.67102,41.789349,381.44247,0.02854246,-16.439477,-0.10850919,23.231862,151.50308,70.265613,397.44822,0.40921924,-887.48328,-0.60286462,19.440972,1472.1104,41.789349,2700.7974,8.7979689e-07,-440.15569,-0.30464454,23.231862,1444.8172,70.265613,2766.9953,0.017948254,-627.02118,-0.42593353,0.10858949,1472.1104,0.30604788,2700.7974,0.0010644596,-166.04638,-0.11492553,31.494057,1444.8172,132.14877,2766.9953,0.38190861,-155.07906,-0.10733472,0.0017371853,1444.8172,0.0065478898,2766.9953,0.41433792,-7.5070386,-0.0051958396,3.0939621,1444.8172,16.704478,2766.9953,0.96857115,16369.725,294183.82,1.1626153,397.44822,4,daily
0.92101625,0.062620152,0.53518761,14.707985,5.34995,-0.032224677,0.66572956,-1.9246401,-0.09081864,0.49968335,21.192126,5.3710417,-16.692361,0.4901263,-0.042424139,-0.13300724,0.53518761,0.31896112,5.34995,0.25557049,0.35714678,-3.0187608,-0.13235872,0.49968335,22.80742,5.3710417,-64.906928,0.31339537,4.3868802e-06,0.00285061,14.707985,0.0015389268,-0.032224677,0.0068144526,0.98432492,0.00048925829,0.31792174,0.31896112,0.0015389268,0.25557049,0.0068144526,0.024454487,-1.0614566,-0.37662254,21.192126,2.8183566,-16.692361,13.399872,0.0030171267,-34.940188,-0.018386283,0.51059015,1900.3399,5.3715351,2356.2577,0.89201935,4.5767891,0.037559996,14.707985,121.85276,-0.032224677,85.707676,0.7956637,12.117396,0.080246575,21.192126,151.00203,-16.692361,100.62112,0.54219587,270.79217,0.16175666,14.84762,1674.0712,0.054032458,1945.1147,0.26682754,18.486003,0.0097277349,17.682212,1900.3399,-15.654067,2356.2577,0.94274726,-60.491197,-0.036134184,0.29136616,1674.0712,0.23629642,1945.1147,0.80530291,53.219324,0.02800516,21.707152,1900.3399,-65.081666,2356.2577,0.83617341,-210.6409,-0.1108438,0.0017087488,1900.3399,0.0064726766,2356.2577,0.41173399,313.5522,0.16499795,2.7690651,1900.3399,13.24661,2356.2577,0.21999687,16181.691,290652.76,1.1948753,101.20343,4,0
2.2017379,0.14048625,0.53663204,15.672267,5.3332156,1.8559691,0.35173389,-2.5839489,-0.12328427,0.48503634,20.959275,5.3519653,-18.347949,0.34801117,-0.021130948,-0.095842021,0.53663204,0.22047686,5.3332156,0.098844114,0.52633919,-2.1593457,-0.1058129,0.48503634,20.407207,5.3519653,-65.972431,0.42102507,-0.00064652365,-0.41016628,15.672267,0.0015762477,1.8559691,0.0064119463,0.0046392862,0.00034641967,0.21977489,0.22047686,0.0015762477,0.098844114,0.0064119463,0.14221974,-1.0268591,-0.3722214,20.959275,2.758732,-18.347949,13.184801,0.0034050711,-79.650626,-0.03830707,0.48957342,2079.267,5.3513434,2582.811,0.77526726,5.6416869,0.039868116,15.672267,141.50874,1.8559691,88.456655,0.79250299,3.8432422,0.023550818,20.959275,163.18933,-18.347949,105.34194,0.85824308,260.53084,0.1477284,15.672267,1763.5799,1.8559691,1966.087,0.32720554,-237.44948,-0.11419865,20.809407,2079.267,-19.188045,2582.811,0.39334006,-419.48475,-0.23785979,0.22047686,1763.5799,0.098844114,1966.087,0.11143267,161.79909,0.077815446,18.544653,2079.267,-67.648321,2582.811,0.56150631,-14.100687,-0.0067815662,0.0018683424,2079.267,0.0061141992,2582.811,0.95970551,326.78251,0.15716236,2.7875597,2079.267,13.243258,2582.811,0.2387183,15285.498,290679.97,1.1941504,104.87756,4,1
1.4380447,0.13206274,0.55513751,10.889102,5.3201018,1.4576753,0.3871646,0.78050936,0.03674503,0.49521735,21.241223,5.3395764,-16.189641,0.78045011,-0.027657112,-0.07366924,0.55513751,0.3754228,5.3201018,0.18723583,0.63056188,-0.57160848,-0.029006518,0.49521735,19.706208,5.3395764,-65.348559,0.82586856,-0.00064413837,-0.38378312,10.889102,0.0016783916,1.4576753,0.006251171,0.0092533152,0.00027391914,0.16320335,0.3754228,0.0016783916,0.18723583,0.006251171,0.28408144,-0.87228939,-0.30277014,21.241223,2.8810285,-16.189641,12.929766,0.018703134,69.028209,0.037433387,0.51137903,1844.0279,5.3496288,2352.1693,0.78613566,-11.532163,-0.081120491,10.889102,142.16091,1.4576753,84.99993,0.59629633,-11.699547,-0.074459035,21.241223,157.12729,-16.189641,101.08171,0.57179469,337.39458,0.19685171,10.889102,1713.953,1.4576753,1894.8007,0.19494574,-277.83807,-0.15066913,21.583427,1844.0279,-17.543571,2352.1693,0.27220032,-125.83043,-0.073415331,0.3754228,1713.953,0.18723583,1894.8007,0.63174368,-84.391257,-0.045764632,15.636179,1844.0279,-68.85305,2352.1693,0.74005699,-368.57983,-0.19987758,0.0018678813,1844.0279,0.0058361434,2352.1693,0.14344166,612.25415,0.33202001,2.9443009,1844.0279,13.066193,2352.1693,0.013269124,14590.359,290510.6,1.1960981,84.802566,4,2
0.19583913,0.01746304,0.58386974,11.214492,5.3012662,2.4950142,0.91149991,1.0694849,0.04962071,0.50682037,21.553196,5.3229074,-15.4416,0.70653999,-0.015304694,-0.045417497,0.58386974,0.33697792,5.3012662,0.16689061,0.77243161,0.53407482,0.024675883,0.50682037,21.643595,5.3229074,-64.717457,0.85154599,-0.00091496349,-0.55678849,11.214492,0.0016432874,2.4950142,0.0062658279,0.00010549439,0.00077309522,0.4704565,0.33697792,0.0016432874,0.16689061,0.0062658279,0.0014546898,-0.88393319,-0.30574815,21.553196,2.89105,-15.4416,12.650392,0.017516075,-30.31444,-0.014656489,0.5341988,2068.3289,5.3257442,2359.2422,0.91704073,7.1487761,0.047552666,11.214492,150.33386,2.4950142,92.039454,0.76203734,-21.110297,-0.13227344,21.553196,159.59589,-15.4416,100.43805,0.31371001,-296.52712,-0.16863768,11.214492,1758.3681,2.4950142,1816.9977,0.27969231,144.56805,0.069896065,20.370213,2068.3289,-17.514494,2359.2422,0.61895895,207.13452,0.11779929,0.33697792,1758.3681,0.16689061,1816.9977,0.45185585,-413.36613,-0.19985513,18.613464,2068.3289,-67.933871,2359.2422,0.15134583,-331.34204,-0.16019795,0.0017974124,2068.3289,0.0058873944,2359.2422,0.25184981,330.55862,0.15981918,2.871764,2068.3289,12.497326,2359.2422,0.25298745,14718.486,289956.44,1.1961224,94.908737,4,3
0.49552588,0.038553188,0.56146893,12.853046,5.2760627,4.7157757,0.79920287,3.8547479,0.17408357,0.50289346,22.143088,5.2975648,-16.499395,0.18343174,0.088686704,0.20069437,0.56146893,0.4418993,5.2760627,0.31215339,0.18110239,-0.61856,-0.030752177,0.50289346,20.114348,5.2975648,-63.016965,0.81556761,-0.00066256716,-0.40166016,12.853046,0.0016495715,4.7157757,0.0062087683,0.0056610731,0.00034682331,0.21025055,0.4418993,0.0016495715,0.31215339,0.0062087683,0.16077275,-1.4039779,-0.48373324,22.143088,2.9023803,-16.499395,12.393665,9.0207992e-05,-11.878541,-0.0059800348,0.51102576,1986.3666,5.3008429,2548.4063,0.96446475,3.8952772,0.026024142,12.853046,149.67937,4.7157757,91.3252,0.86369241,-11.827228,-0.071882797,22.143088,164.53489,-16.499395,99.556164,0.58520636,133.3911,0.07179542,12.853046,1857.9332,4.7157757,2056.0606,0.63539148,134.09536,0.067507863,22.362937,1986.3666,-16.948489,2548.4063,0.61460734,-372.27989,-0.20037313,0.4418993,1857.9332,0.31215339,2056.0606,0.18181639,33.225101,0.016726571,19.003249,1986.3666,-63.840634,2548.4063,0.90082328,-49.171014,-0.024754249,0.0018352346,1986.3666,0.0058416855,2548.4063,0.85366276,233.40396,0.11750296,2.9355577,1986.3666,12.337492,2548.4063,0.37970273,14604.214,289791.82,1.196264,97.593098,4,4
-0.86357459,-0.04789414,0.56107492,18.030903,5.241241,9.3252465,0.75194505,-2.341369,-0.12243091,0.50320144,19.124003,5.2742014,-15.592806,0.35138381,-0.079936251,-0.23716424,0.56107492,0.33705018,5.241241,0.17679348,0.112514,-3.8335285,-0.19461989,0.50320144,19.697517,5.2742014,-52.497812,0.13619897,1.9823819e-05,0.01196302,18.030903,0.0016570916,9.3252465,0.0061774455,0.93710662,0.00071618518,0.43219409,0.33705018,0.0016570916,0.17679348,0.0061774455,0.0027045526,-0.82914668,-0.29948275,19.124003,2.7685958,-15.592806,12.361937,0.020092423,44.718454,0.031266776,0.50320144,1430.2228,5.2742014,2061.3422,0.81253685,37.634173,0.26580442,18.030903,141.58596,9.3252465,89.091839,0.074191322,-1.6503914,-0.010742732,19.124003,153.62864,-15.592806,91.071542,0.9350724,372.90069,0.27472281,18.030903,1357.3707,9.3252465,1698.8591,0.064643978,-42.408489,-0.029651668,19.124003,1430.2228,-15.592806,2061.3422,0.8220581,12.732978,0.0093806195,0.33705018,1357.3707,0.17679348,1698.8591,0.9506641,221.58362,0.15492945,19.697517,1430.2228,-52.497812,2061.3422,0.2372111,75.805218,0.053002385,0.0018683943,1430.2228,0.0058376535,2061.3422,0.68753596,386.04766,0.26992135,2.7685958,1430.2228,12.361937,2061.3422,0.037005353,14594.134,289785.85,1.1972014,91.071542,4,5
-7.1443341,-0.32201428,0.56556773,22.186389,5.227176,23.133226,0.030992054,-6.5936597,-0.30113662,0.50091081,21.895908,5.2555487,4.0936298,0.019382893,-0.091522474,-0.21119635,0.56556773,0.43335254,5.227176,0.62794663,0.16372671,-22.602217,-0.56238367,0.50091081,40.190031,5.2555487,37.436589,2.9201186e-06,-0.00076834516,-0.47830409,22.186389,0.0016063947,23.133226,0.0063061757,0.00088974487,-0.00056210917,-0.34991971,0.43335254,0.0016063947,0.62794663,0.0063061757,0.018457456,-0.68049857,-0.24347864,21.895908,2.7949005,4.0936298,13.157136,0.060844605,-257.42524,-0.20284332,0.53917132,1269.0841,5.2568219,1365.4125,0.15341625,-5.79623,-0.041378687,22.186389,140.07767,23.133226,88.481972,0.78725167,24.3381,0.16437768,21.895908,148.06208,4.0936298,92.779602,0.20946535,527.90973,0.38173809,23.18026,1382.9108,24.467765,1494.9696,0.015073626,-209.08574,-0.16475325,20.843949,1269.0841,1.0535294,1365.4125,0.24795917,231.80359,0.16762006,0.44200055,1382.9108,0.66567118,1494.9696,0.30120951,319.01326,0.25137283,38.865808,1269.0841,31.009041,1365.4125,0.075182467,-213.9911,-0.16861853,0.0018390153,1269.0841,0.0060359716,1365.4125,0.23688197,381.2473,0.30041137,2.8466828,1269.0841,13.239844,1365.4125,0.032199385,15089.929,290612.11,1.1973856,77.897634,4,6
1.0526032,0.031731978,0.51607683,33.171684,5.2106195,56.818768,0.82683794,-9.3133669,-0.26751615,0.48344475,34.814223,5.2388496,63.096712,0.038789986,0.038711891,0.20037465,0.51607683,0.19319755,5.2106195,0.44620541,0.16294885,-7.5664135,-0.10548144,0.48344475,71.732182,5.2388496,221.37056,0.4224897,-0.00050343343,-0.33885517,33.171684,0.0014856891,56.818768,0.0065770416,0.016077348,-0.00069495678,-0.4677673,0.19319755,0.0014856891,0.44620541,0.0065770416,0.00061419299,-0.80049816,-0.23722581,34.814223,3.3744142,63.096712,15.607652,0.067995498,-71.603683,-0.038060077,0.59901297,1881.3331,5.2516054,2107.0303,0.83077888,-43.606172,-0.2553252,33.171684,170.78679,56.818768,183.61601,0.073526498,38.441973,0.21034355,34.814223,182.75804,63.096712,189.693,0.10671318,-15.071905,-0.0080154343,32.683523,1880.3604,69.155734,2221.9466,0.96527205,-434.54366,-0.23097646,35.955015,1881.3331,64.33497,2107.0303,0.1887483,319.21183,0.16976099,0.19365173,1880.3604,0.50243487,2221.9466,0.35295504,472.64604,0.25122932,72.49261,1881.3331,208.52079,2107.0303,0.15179601,-475.50466,-0.25274879,0.0015126761,1881.3331,0.0069237132,2107.0303,0.14925245,663.89236,0.352884,3.0528438,1881.3331,15.148105,2107.0303,0.0406515,17309.283,292584.26,1.1857552,160.2036,4,7
8.1622523,0.19106191,0.53940754,42.720459,5.1851881,86.326106,0.19331169,-6.6683642,-0.16005553,0.49474801,41.662815,5.2141505,114.43528,0.22185951,0.035223593,0.21410679,0.53940754,0.16451413,5.1851881,0.4038791,0.14393851,0.54755652,0.0055589421,0.49474801,98.500131,5.2141505,370.26054,0.96637602,-0.00082375019,-0.50749562,42.720459,0.0016231671,86.326106,0.006475193,0.00023173426,-0.00077657462,-0.47843171,0.16451413,0.0016231671,0.4038791,0.006475193,0.00058268771,-0.46017465,-0.11320217,41.662815,4.0650692,114.43528,18.031416,0.38913477,98.48719,0.050904311,0.5837171,1934.7515,5.2343677,2906.0584,0.76150146,-72.010246,-0.42176002,42.720459,170.73749,86.326106,419.11317,0.0028295329,56.917113,0.25895082,41.662815,219.79893,114.43528,433.33216,0.045732963,275.45302,0.14622576,39.080396,1883.7517,98.692835,3050.3419,0.3947811,48.072371,0.024846794,42.164612,1934.7515,111.98222,2906.0584,0.88228586,282.43107,0.1499301,0.15162268,1883.7517,0.45271798,3050.3419,0.3827824,696.76087,0.36012939,98.167844,1934.7515,361.59725,2906.0584,0.026354968,-730.33638,-0.37748331,0.001670863,1934.7515,0.0068650248,2906.0584,0.019469763,559.77847,0.28932836,3.3992787,1934.7515,17.334615,2906.0584,0.078092747,17162.562,294776.57,1.1638483,373.90272,4,8
3.6535434,0.0722083,0.5736373,50.597277,5.1544542,108.8686,0.63344335,-11.693748,-0.22051528,0.51348512,53.029195,5.1778315,168.76478,0.09043951,0.018929317,0.14010342,0.5736373,0.1351096,5.1544542,0.37101604,0.35306098,-2.1049179,-0.018861154,0.51348512,111.60069,5.1778315,492.59149,0.88626078,-0.0010737774,-0.55545113,50.597277,0.0019331628,108.8686,0.0065365378,6.1523704e-05,-0.00068745176,-0.35560987,0.1351096,0.0019331628,0.37101604,0.0065365378,0.015293589,0.12850106,0.029518135,53.029195,4.3532921,168.76478,19.902464,0.82284646,-211.90706,-0.11731306,0.60487149,1806.3382,5.1717265,3085.2997,0.4709583,-38.156186,-0.18468178,50.597277,206.60503,108.8686,617.69361,0.21918295,44.917135,0.16495773,53.029195,272.29482,168.76478,665.49335,0.20783993,-176.10037,-0.09831111,47.305967,1791.256,117.10254,3143.723,0.55156092,-211.27089,-0.11696087,52.835489,1806.3382,168.69947,3085.2997,0.47230028,46.091867,0.025731591,0.12252978,1791.256,0.39851804,3143.723,0.87643418,390.87627,0.21639152,114.46878,1806.3382,491.43932,3085.2997,0.17987632,-541.30126,-0.29966773,0.0019958857,1806.3382,0.0067157562,3085.2997,0.060299691,493.35537,0.27312459,3.6650121,1806.3382,19.414086,3085.2997,0.088155667,16789.391,296864.1,1.1436294,580.78741,4,9
2.6709133,0.054057768,0.53912429,49.408501,5.1252664,112.1025,0.71219801,-22.560779,-0.35909147,0.49904806,62.827389,5.1582176,216.38934,0.0048378186,0.030429615,0.27721364,0.53912429,0.10976954,5.1252664,0.32427576,0.053807696,-3.620807,-0.031684584,0.49904806,114.27661,5.1582176,561.36258,0.81007815,-0.0005106709,-0.27850733,49.408501,0.0018335995,112.1025,0.0068179967,0.052653269,-0.0004563631,-0.24888919,0.10976954,0.0018335995,0.32427576,0.0068179967,0.084617387,0.32721206,0.077175995,62.827389,4.2398165,216.38934,21.067588,0.55780661,-116.73861,-0.068887442,0.5803135,1694.6284,5.1628289,2920.4347,0.68110625,-37.035551,-0.14970138,49.408501,247.39619,112.1025,796.35598,0.3045819,9.272714,0.028203706,62.827389,328.77644,216.38934,846.44321,0.8306158,-498.45595,-0.29901441,46.494371,1666.9964,124.67682,2986.9244,0.072210349,-342.72865,-0.20224414,65.781458,1694.6284,218.26062,2920.4347,0.22333744,-131.97493,-0.079169294,0.099989536,1666.9964,0.35206725,2986.9244,0.64137895,239.57113,0.1413709,115.71322,1694.6284,555.13655,2920.4347,0.39720637,-545.24451,-0.32174872,0.0018080456,1694.6284,0.0071221098,2920.4347,0.048853337,42.292572,0.024956841,3.6497204,1694.6284,20.420857,2920.4347,0.88176816,17805.275,297918.5,1.130171,722.26555,4,10
20.138599,0.3303619,0.51218099,60.959207,5.1185902,118.61454,0.015692844,-17.460854,-0.25852144,0.49130966,67.541224,5.1466713,240.77259,0.046106244,0.045876444,0.40979629,0.51218099,0.11194939,5.1185902,0.3101514,0.0023092453,8.9859915,0.070397992,0.49130966,127.64556,5.1466713,574.34063,0.59300019,-0.00058981586,-0.33782128,60.959207,0.0017459405,118.61454,0.0071476597,0.013363277,-0.00036784334,-0.21068492,0.11194939,0.0017459405,0.3101514,0.0071476597,0.12995245,0.76135852,0.18398627,67.541224,4.1381269,240.77259,21.662578,0.15936293,-237.80731,-0.14575715,0.58232888,1631.531,5.1278455,2965.6854,0.37595212,-39.54268,-0.15490412,60.959207,255.27197,118.61454,878.1139,0.26806504,-29.597296,-0.08178969,67.541224,361.87075,240.77259,950.64411,0.53443168,-519.63344,-0.31849438,56.2208,1631.531,137.9586,2965.6854,0.048145662,-511.60319,-0.31357247,63.831256,1631.531,248.88785,2965.6854,0.051908951,-325.73059,-0.1996472,0.093620792,1631.531,0.34971732,2965.6854,0.22301714,-305.36793,-0.18716649,126.07421,1631.531,569.22937,2965.6854,0.25389367,-492.51352,-0.301872,0.0017777828,1631.531,0.007368843,2965.6854,0.061805249,115.78344,0.070966129,3.7196125,1631.531,21.267667,2965.6854,0.66770044,18422.107,298807.89,1.1196262,835.17098,4,11
23.22641,0.34507961,0.5080029,67.307395,5.1145498,123.04651,0.010603541,-16.087691,-0.22432054,0.49318034,71.71742,5.1463449,255.11007,0.084877368,0.046538816,0.41163931,0.5080029,0.11305727,5.1145498,0.30507385,0.0019847856,15.070468,0.11613393,0.49318034,129.768,5.1463449,552.7353,0.37688985,-0.00065515874,-0.36665845,67.307395,0.0017868366,123.04651,0.0073354594,0.0063909764,-0.000504831,-0.28252778,0.11305727,0.0017868366,0.30507385,0.0073354594,0.03845739,0.62409423,0.15162727,71.71742,4.1159762,255.11007,21.962305,0.24747897,-218.82661,-0.11181008,0.55691923,1957.1277,5.1311143,3235.7747,0.47533486,-42.434553,-0.15823163,67.307395,268.17996,123.04651,888.32668,0.25313414,-28.120754,-0.071884392,71.71742,391.19416,255.11007,952.88888,0.58519801,-688.83188,-0.35196063,66.722505,1957.1277,137.10922,3235.7747,0.020637129,-641.61247,-0.32783374,65.685395,1957.1277,264.25934,3235.7747,0.031864581,-527.80401,-0.26968298,0.10796638,1957.1277,0.33019862,3235.7747,0.080310949,27.181193,0.013888309,124.01929,1957.1277,552.78405,3235.7747,0.92956489,-465.19672,-0.2376936,0.0017098152,1957.1277,0.0076224773,3235.7747,0.12482735,112.22732,0.057342874,3.57551,1957.1277,21.485987,3235.7747,0.71493012,19056.193,299035.15,1.1193492,832.51694,4,12
20.715088,0.3234536,0.49876857,64.04346,5.1582304,118.1693,0.017042234,-9.2953739,-0.13128651,0.4832754,70.802202,5.1908241,249.68247,0.31736629,0.039210112,0.28200243,0.49876857,0.13904175,5.1582304,0.31577506,0.038834834,14.590976,0.12937114,0.4832754,112.78386,5.1908241,487.34958,0.32453947,-0.00046864756,-0.26215214,64.04346,0.0017876931,118.1693,0.0074382701,0.055495043,6.0170888e-05,0.0336584,0.13904175,0.0017876931,0.31577506,0.0074382701,0.80907562,0.79595194,0.1945772,70.802202,4.0906742,249.68247,21.924701,0.1362866,-105.53019,-0.061329747,0.53684779,1720.7015,5.184679,3196.0223,0.68900012,-17.533044,-0.065399107,64.04346,268.09302,118.1693,848.49971,0.63846807,-2.4023808,-0.0066125636,70.802202,363.30551,249.68247,913.64718,0.96000784,-820.59014,-0.47689279,61.635424,1720.7015,130.12063,3196.0223,0.00092611859,-453.94362,-0.26381311,77.573877,1720.7015,250.69959,3196.0223,0.079931847,-621.61357,-0.3612559,0.13111885,1720.7015,0.34128562,3196.0223,0.014762605,-158.99853,-0.09240332,125.92347,1720.7015,479.03315,3196.0223,0.54603566,-396.77454,-0.23058883,0.0017015613,1720.7015,0.0076685611,3196.0223,0.12752666,-43.834842,-0.025474983,3.5406025,1720.7015,21.243226,3196.0223,0.86807092,19171.403,298826.03,1.1221241,794.71158,4,13
12.753365,0.24197017,0.4860191,52.706354,5.1907479,91.57063,0.080879134,-8.6889896,-0.12539556,0.46799054,69.292644,5.2216607,227.03876,0.3397535,0.031362798,0.25155195,0.4860191,0.12467722,5.1907479,0.28017323,0.069217433,14.539866,0.15834945,0.46799054,91.821387,5.2216607,383.17612,0.22688992,-0.000468797,-0.28376877,52.706354,0.0016520387,91.57063,0.0073668837,0.039480235,1.0659749e-06,0.00064524812,0.12467722,0.0016520387,0.28017323,0.0073668837,0.99634134,0.71687214,0.17583772,69.292644,4.0768963,227.03876,21.627607,0.17898753,-65.43156,-0.039129594,0.52263664,1672.1758,5.2031673,3118.0191,0.8009014,8.258754,0.035220675,52.706354,234.48597,91.57063,804.14867,0.80229825,-35.93714,-0.11067417,69.292644,324.71118,227.03876,872.16647,0.39988021,-595.49424,-0.3561194,52.612458,1672.1758,99.247791,3118.0191,0.017663836,-224.17839,-0.13406389,71.677173,1672.1758,232.38046,3118.0191,0.38561093,-518.0017,-0.30977706,0.12142328,1672.1758,0.29985689,3118.0191,0.040725492,-18.299033,-0.010943247,91.148784,1672.1758,381.92159,3118.0191,0.94379442,-363.31887,-0.21727313,0.0015770233,1672.1758,0.0075474681,3118.0191,0.15656327,-94.482397,-0.05650267,3.4585642,1672.1758,21.082247,3118.0191,0.71563564,18868.67,298694.45,1.123904,769.79553,4,14
11.23835,0.22760998,0.47668796,49.375473,5.251178,78.82875,0.097873003,-7.1177267,-0.12480701,0.4641036,57.029861,5.2856435,182.4707,0.34204301,0.028038814,0.17848778,0.47668796,0.15709094,5.251178,0.2984192,0.19659285,10.155353,0.17290495,0.4641036,58.733731,5.2856435,246.17363,0.18646221,-0.00048247662,-0.29269182,49.375473,0.0016484117,78.82875,0.0073450085,0.031730502,2.0724887e-05,0.01257264,0.15709094,0.0016484117,0.2984192,0.0073450085,0.92810336,0.53803787,0.1311896,57.029861,4.1012236,182.4707,21.071289,0.31772678,-130.26782,-0.079682903,0.51346821,1634.8277,5.2459533,2864.644,0.60714074,-17.238954,-0.072774371,49.375473,236.88221,78.82875,733.92698,0.6010012,-37.495879,-0.1219667,57.029861,307.42718,182.4707,788.4865,0.35322687,-565.82286,-0.3461055,51.732897,1634.8277,84.702962,2864.644,0.021372021,-65.195355,-0.039879037,62.152735,1634.8277,184.93729,2864.644,0.79716759,-657.9112,-0.40243458,0.16523319,1634.8277,0.31681846,2864.644,0.0067657562,54.333837,0.033235206,63.953502,1634.8277,240.50395,2864.644,0.83041458,-527.17802,-0.32246702,0.001600878,1634.8277,0.007509617,2864.644,0.032775767,-41.171153,-0.025183787,3.6458795,1634.8277,20.20947,2864.644,0.87109571,18774.043,297827.8,1.1300149,708.10049,4,15
5.0265295,0.12899663,0.45768651,38.966363,5.3098946,59.204354,0.35255785,-6.4539452,-0.14983222,0.44273191,43.074481,5.3346551,115.46518,0.25318585,0.03633594,0.21642425,0.45768651,0.16789219,5.3098946,0.32472709,0.11598136,-0.7067923,-0.026991972,0.44273191,26.185278,5.3346551,97.736965,0.83779247,-0.00070766425,-0.4278717,38.966363,0.0016539169,59.204354,0.0072881328,0.0012493811,-0.00049227247,-0.29764038,0.16789219,0.0016539169,0.32472709,0.0072881328,0.028828307,-0.3492847,-0.088379764,43.074481,3.9520891,115.46518,20.328815,0.50190105,-87.761916,-0.053883871,0.50585639,1628.7233,5.2992196,2649.1586,0.73467363,-39.816922,-0.17387657,38.966363,228.99533,59.204354,649.19782,0.20859681,-28.544071,-0.1014091,43.074481,281.47446,115.46518,678.12795,0.44071991,-154.75713,-0.095017448,39.243585,1628.7233,67.202241,2649.1586,0.54946852,-12.367804,-0.0075935577,43.741633,1628.7233,118.47864,2649.1586,0.96193352,-245.15348,-0.1505188,0.1661277,1628.7233,0.35825534,2649.1586,0.34136561,558.68343,0.34301925,29.014462,1628.7233,98.659503,2649.1586,0.026156089,-447.89832,-0.27499964,0.001603413,1628.7233,0.0074633408,2649.1586,0.077971891,-47.276576,-0.02902677,3.4588607,1628.7233,19.589139,2649.1586,0.85520899,18658.352,297216.35,1.1375971,621.81268,4,16
2.1714126,0.11010459,0.48794227,19.721364,5.3226835,21.825438,0.43254131,-10.831822,-0.40940364,0.47070624,26.457562,5.3562037,37.304495,0.001161561,0.071775451,0.25223423,0.48794227,0.28455872,5.3226835,0.38589311,0.068441061,-5.2426376,-0.26301869,0.47070624,19.932567,5.3562037,-36.499806,0.042318105,0.00010944299,0.070306153,19.721364,0.0015566631,21.825438,0.0075002374,0.61689805,0.00021467922,0.13790988,0.28455872,0.0015566631,0.38589311,0.0075002374,0.32473497,-0.93194818,-0.25846948,26.457562,3.6056411,37.304495,18.8106,0.046151586,-152.406,-0.1709164,0.47283674,891.69911,5.3757676,1612.47,0.20366464,-6.7319286,-0.040069695,19.721364,168.00548,21.825438,506.14798,0.77574355,21.01905,0.1221822,26.457562,172.03037,37.304495,515.18322,0.35237052,-178.49256,-0.20318328,19.133818,878.48058,21.37298,1726.3166,0.15701143,-16.01703,-0.01796237,26.599397,891.69911,36.444548,1612.47,0.89449462,116.70122,0.13284439,0.28507885,878.48058,0.38979001,1726.3166,0.3577411,-118.59634,-0.1330004,17.369435,891.69911,-37.640482,1612.47,0.323998,-38.305011,-0.042957328,0.0017833119,891.69911,0.0071403785,1612.47,0.75102962,128.81768,0.14446317,3.6050681,891.69911,18.797603,1612.47,0.28365454,17850.946,296388.34,1.1485116,507.28696,4,17
